7496.76250	0.00119
7494.83382	0.00120
7492.90514	0.00122
7490.97647	0.00123
7489.04779	0.00123
7487.11912	0.00123
7485.19044	0.00122
7483.26177	0.00122
7481.33309	0.00122
7479.40441	0.00123
7477.47574	0.00123
7475.54706	0.00125
7473.61839	0.00125
7471.68971	0.00125
7469.76104	0.00124
7467.83236	0.00126
7465.90368	0.00127
7463.97501	0.00128
7462.04633	0.00127
7460.11766	0.00126
7458.18898	0.00126
7456.26031	0.00127
7454.33163	0.00129
7452.40295	0.00130
7450.47428	0.00130
7448.54560	0.00130
7446.61693	0.00130
7444.68825	0.00130
7442.75958	0.00130
7440.83090	0.00130
7438.90222	0.00130
7436.97355	0.00129
7435.04487	0.00130
7433.11620	0.00131
7431.18752	0.00132
7429.25885	0.00132
7427.33017	0.00132
7425.40149	0.00133
7423.47282	0.00134
7421.54414	0.00134
7419.61547	0.00133
7417.68679	0.00133
7415.75812	0.00134
7413.82944	0.00136
7411.90076	0.00137
7409.97209	0.00137
7408.04341	0.00137
7406.11474	0.00136
7404.18606	0.00135
7402.25739	0.00136
7400.32871	0.00136
7398.40003	0.00137
7396.47136	0.00139
7394.54268	0.00139
7392.61401	0.00138
7390.68533	0.00137
7388.75666	0.00137
7386.82798	0.00138
7384.89930	0.00138
7382.97063	0.00139
7381.04195	0.00140
7379.11328	0.00140
7377.18460	0.00139
7375.25593	0.00138
7373.32725	0.00139
7371.39857	0.00141
7369.46990	0.00142
7367.54122	0.00143
7365.61255	0.00143
7363.68387	0.00143
7361.75520	0.00143
7359.82652	0.00144
7357.89784	0.00144
7355.96917	0.00145
7354.04049	0.00145
7352.11182	0.00147
7350.18314	0.00148
7348.25447	0.00148
7346.32579	0.00148
7344.39711	0.00148
7342.46844	0.00148
7340.53976	0.00147
7338.61109	0.00147
7336.68241	0.00148
7334.75374	0.00148
7332.82506	0.00147
7330.89638	0.00147
7328.96771	0.00148
7327.03903	0.00149
7325.11036	0.00150
7323.18168	0.00151
7321.25301	0.00151
7319.32433	0.00152
7317.39565	0.00152
7315.46698	0.00154
7313.53830	0.00155
7311.60963	0.00155
7309.68095	0.00155
7307.75228	0.00155
7305.82360	0.00155
7303.89492	0.00156
7301.96625	0.00157
7300.03757	0.00158
7298.10890	0.00158
7296.18022	0.00158
7294.25155	0.00158
7292.32287	0.00158
7290.39419	0.00158
7288.46552	0.00158
7286.53684	0.00159
7284.60817	0.00159
7282.67949	0.00160
7280.75082	0.00161
7278.82214	0.00162
7276.89346	0.00161
7274.96479	0.00160
7273.03611	0.00161
7271.10744	0.00162
7269.17876	0.00162
7267.25009	0.00161
7265.32141	0.00161
7263.39273	0.00162
7261.46406	0.00163
7259.53538	0.00163
7257.60671	0.00163
7255.67803	0.00163
7253.74936	0.00164
7251.82068	0.00166
7249.89200	0.00166
7247.96333	0.00166
7246.03465	0.00166
7244.10598	0.00165
7242.17730	0.00165
7240.24863	0.00166
7238.31995	0.00167
7236.39127	0.00168
7234.46260	0.00168
7232.53392	0.00167
7230.60525	0.00167
7228.67657	0.00168
7226.74790	0.00171
7224.81922	0.00172
7222.89054	0.00172
7220.96187	0.00171
7219.03319	0.00172
7217.10452	0.00172
7215.17584	0.00172
7213.24717	0.00173
7211.31849	0.00173
7209.38981	0.00174
7207.46114	0.00175
7205.53246	0.00176
7203.60379	0.00176
7201.67511	0.00175
7199.74644	0.00175
7197.81776	0.00176
7195.88908	0.00177
7193.96041	0.00177
7192.03173	0.00177
7190.10306	0.00176
7188.17438	0.00177
7186.24571	0.00178
7184.31703	0.00179
7182.38835	0.00179
7180.45968	0.00179
7178.53100	0.00180
7176.60233	0.00181
7174.67365	0.00182
7172.74498	0.00183
7170.81630	0.00183
7168.88762	0.00181
7166.95895	0.00181
7165.03027	0.00183
7163.10160	0.00185
7161.17292	0.00185
7159.24425	0.00185
7157.31557	0.00185
7155.38689	0.00186
7153.45822	0.00186
7151.52954	0.00185
7149.60087	0.00184
7147.67219	0.00183
7145.74352	0.00184
7143.81484	0.00185
7141.88616	0.00186
7139.95749	0.00187
7138.02881	0.00189
7136.10014	0.00189
7134.17146	0.00189
7132.24279	0.00188
7130.31411	0.00189
7128.38543	0.00189
7126.45676	0.00190
7124.52808	0.00192
7122.59941	0.00193
7120.67073	0.00193
7118.74206	0.00193
7116.81338	0.00193
7114.88470	0.00194
7112.95603	0.00195
7111.02735	0.00196
7109.09868	0.00196
7107.17000	0.00195
7105.24133	0.00196
7103.31265	0.00197
7101.38397	0.00197
7099.45530	0.00196
7097.52662	0.00195
7095.59795	0.00194
7093.66927	0.00194
7091.74060	0.00196
7089.81192	0.00198
7087.88324	0.00200
7085.95457	0.00202
7084.02589	0.00202
7082.09722	0.00200
7080.16854	0.00198
7078.23987	0.00198
7076.31119	0.00199
7074.38251	0.00201
7072.45384	0.00203
7070.52516	0.00204
7068.59649	0.00203
7066.66781	0.00202
7064.73914	0.00203
7062.81046	0.00205
7060.88178	0.00206
7058.95311	0.00206
7057.02443	0.00206
7055.09576	0.00205
7053.16708	0.00206
7051.23841	0.00208
7049.30973	0.00209
7047.38105	0.00209
7045.45238	0.00209
7043.52370	0.00209
7041.59503	0.00209
7039.66635	0.00209
7037.73768	0.00210
7035.80900	0.00212
7033.88032	0.00214
7031.95165	0.00213
7030.02297	0.00211
7028.09430	0.00210
7026.16562	0.00211
7024.23695	0.00213
7022.30827	0.00214
7020.37959	0.00214
7018.45092	0.00214
7016.52224	0.00214
7014.59357	0.00215
7012.66489	0.00217
7010.73622	0.00219
7008.80754	0.00219
7006.87886	0.00218
7004.95019	0.00216
7003.02151	0.00216
7001.09284	0.00217
6999.16416	0.00218
6997.23549	0.00221
6995.30681	0.00222
6993.37813	0.00221
6991.44946	0.00220
6989.52078	0.00219
6987.59211	0.00220
6985.66343	0.00221
6983.73476	0.00221
6981.80608	0.00221
6979.87740	0.00222
6977.94873	0.00223
6976.02005	0.00224
6974.09138	0.00225
6972.16270	0.00227
6970.23403	0.00228
6968.30535	0.00229
6966.37667	0.00227
6964.44800	0.00226
6962.51932	0.00228
6960.59065	0.00231
6958.66197	0.00231
6956.73330	0.00230
6954.80462	0.00230
6952.87594	0.00231
6950.94727	0.00233
6949.01859	0.00234
6947.08992	0.00235
6945.16124	0.00235
6943.23257	0.00236
6941.30389	0.00237
6939.37521	0.00237
6937.44654	0.00236
6935.51786	0.00236
6933.58919	0.00237
6931.66051	0.00238
6929.73184	0.00239
6927.80316	0.00239
6925.87448	0.00239
6923.94581	0.00239
6922.01713	0.00239
6920.08846	0.00240
6918.15978	0.00241
6916.23111	0.00241
6914.30243	0.00241
6912.37375	0.00241
6910.44508	0.00242
6908.51640	0.00243
6906.58773	0.00245
6904.65905	0.00245
6902.73038	0.00246
6900.80170	0.00247
6898.87302	0.00248
6896.94435	0.00248
6895.01567	0.00247
6893.08700	0.00247
6891.15832	0.00247
6889.22965	0.00247
6887.30097	0.00249
6885.37229	0.00251
6883.44362	0.00252
6881.51494	0.00250
6879.58627	0.00249
6877.65759	0.00250
6875.72892	0.00251
6873.80024	0.00251
6871.87156	0.00252
6869.94289	0.00254
6868.01421	0.00254
6866.08554	0.00253
6864.15686	0.00254
6862.22819	0.00256
6860.29951	0.00256
6858.37083	0.00257
6856.44216	0.00258
6854.51348	0.00259
6852.58481	0.00259
6850.65613	0.00258
6848.72746	0.00260
6846.79878	0.00260
6844.87010	0.00258
6842.94143	0.00257
6841.01275	0.00258
6839.08408	0.00259
6837.15540	0.00260
6835.22673	0.00261
6833.29805	0.00261
6831.36937	0.00262
6829.44070	0.00263
6827.51202	0.00264
6825.58335	0.00264
6823.65467	0.00265
6821.72600	0.00266
6819.79732	0.00268
6817.86864	0.00269
6815.93997	0.00270
6814.01129	0.00271
6812.08262	0.00271
6810.15394	0.00270
6808.22527	0.00270
6806.29659	0.00270
6804.36791	0.00270
6802.43924	0.00270
6800.51056	0.00270
6798.58189	0.00271
6796.65321	0.00272
6794.72454	0.00274
6792.79586	0.00274
6790.86718	0.00274
6788.93851	0.00275
6787.00983	0.00276
6785.08116	0.00278
6783.15248	0.00279
6781.22381	0.00280
6779.29513	0.00281
6777.36645	0.00282
6775.43778	0.00283
6773.50910	0.00284
6771.58043	0.00284
6769.65175	0.00282
6767.72308	0.00281
6765.79440	0.00281
6763.86572	0.00283
6761.93705	0.00283
6760.00837	0.00283
6758.07970	0.00284
6756.15102	0.00286
6754.22235	0.00287
6752.29367	0.00287
6750.36499	0.00289
6748.43632	0.00291
6746.50764	0.00292
6744.57897	0.00291
6742.65029	0.00290
6740.72162	0.00291
6738.79294	0.00293
6736.86426	0.00294
6734.93559	0.00295
6733.00691	0.00296
6731.07824	0.00296
6729.14956	0.00296
6727.22089	0.00294
6725.29221	0.00294
6723.36353	0.00295
6721.43486	0.00297
6719.50618	0.00299
6717.57751	0.00302
6715.64883	0.00303
6713.72016	0.00303
6711.79148	0.00303
6709.86280	0.00303
6707.93413	0.00303
6706.00545	0.00302
6704.07678	0.00301
6702.14810	0.00302
6700.21943	0.00304
6698.29075	0.00305
6696.36207	0.00306
6694.43340	0.00307
6692.50472	0.00306
6690.57605	0.00305
6688.64737	0.00304
6686.71870	0.00304
6684.79002	0.00306
6682.86134	0.00309
6680.93267	0.00310
6679.00399	0.00308
6677.07532	0.00308
6675.14664	0.00310
6673.21797	0.00312
6671.28929	0.00314
6669.36061	0.00315
6667.43194	0.00316
6665.50326	0.00317
6663.57459	0.00318
6661.64591	0.00317
6659.71724	0.00316
6657.78856	0.00315
6655.85988	0.00316
6653.93121	0.00319
6652.00253	0.00320
6650.07386	0.00320
6648.14518	0.00322
6646.21651	0.00323
6644.28783	0.00323
6642.35915	0.00322
6640.43048	0.00322
6638.50180	0.00323
6636.57313	0.00325
6634.64445	0.00327
6632.71578	0.00328
6630.78710	0.00329
6628.85842	0.00328
6626.92975	0.00328
6625.00107	0.00329
6623.07240	0.00331
6621.14372	0.00332
6619.21505	0.00333
6617.28637	0.00335
6615.35769	0.00336
6613.42902	0.00335
6611.50034	0.00334
6609.57167	0.00334
6607.64299	0.00335
6605.71432	0.00335
6603.78564	0.00334
6601.85696	0.00334
6599.92829	0.00336
6597.99961	0.00338
6596.07094	0.00339
6594.14226	0.00340
6592.21359	0.00340
6590.28491	0.00342
6588.35623	0.00343
6586.42756	0.00345
6584.49888	0.00345
6582.57021	0.00345
6580.64153	0.00345
6578.71286	0.00347
6576.78418	0.00347
6574.85550	0.00347
6572.92683	0.00347
6570.99815	0.00348
6569.06948	0.00349
6567.14080	0.00350
6565.21213	0.00351
6563.28345	0.00353
6561.35477	0.00354
6559.42610	0.00354
6557.49742	0.00355
6555.56875	0.00357
6553.64007	0.00359
6551.71140	0.00361
6549.78272	0.00361
6547.85404	0.00359
6545.92537	0.00359
6543.99669	0.00359
6542.06802	0.00359
6540.13934	0.00360
6538.21067	0.00360
6536.28199	0.00361
6534.35331	0.00364
6532.42464	0.00366
6530.49596	0.00366
6528.56729	0.00365
6526.63861	0.00366
6524.70994	0.00367
6522.78126	0.00368
6520.85258	0.00370
6518.92391	0.00371
6516.99523	0.00372
6515.06656	0.00372
6513.13788	0.00372
6511.20921	0.00371
6509.28053	0.00372
6507.35185	0.00373
6505.42318	0.00374
6503.49450	0.00374
6501.56583	0.00374
6499.63715	0.00375
6497.70848	0.00377
6495.77980	0.00379
6493.85112	0.00381
6491.92245	0.00380
6489.99377	0.00380
6488.06510	0.00380
6486.13642	0.00382
6484.20775	0.00383
6482.27907	0.00384
6480.35039	0.00383
6478.42172	0.00384
6476.49304	0.00387
6474.56437	0.00389
6472.63569	0.00389
6470.70702	0.00389
6468.77834	0.00390
6466.84966	0.00391
6464.92099	0.00393
6462.99231	0.00393
6461.06364	0.00393
6459.13496	0.00392
6457.20629	0.00394
6455.27761	0.00397
6453.34893	0.00398
6451.42026	0.00398
6449.49158	0.00399
6447.56291	0.00400
6445.63423	0.00401
6443.70556	0.00401
6441.77688	0.00400
6439.84820	0.00401
6437.91953	0.00402
6435.99085	0.00404
6434.06218	0.00406
6432.13350	0.00407
6430.20483	0.00408
6428.27615	0.00409
6426.34747	0.00409
6424.41880	0.00408
6422.49012	0.00410
6420.56145	0.00411
6418.63277	0.00411
6416.70410	0.00410
6414.77542	0.00411
6412.84674	0.00412
6410.91807	0.00415
6408.98939	0.00417
6407.06072	0.00417
6405.13204	0.00417
6403.20337	0.00419
6401.27469	0.00422
6399.34601	0.00423
6397.41734	0.00423
6395.48866	0.00423
6393.55999	0.00423
6391.63131	0.00424
6389.70264	0.00426
6387.77396	0.00426
6385.84528	0.00425
6383.91661	0.00426
6381.98793	0.00427
6380.05926	0.00428
6378.13058	0.00428
6376.20191	0.00428
6374.27323	0.00429
6372.34455	0.00430
6370.41588	0.00432
6368.48720	0.00434
6366.55853	0.00435
6364.62985	0.00435
6362.70118	0.00436
6360.77250	0.00438
6358.84382	0.00439
6356.91515	0.00439
6354.98647	0.00438
6353.05780	0.00437
6351.12912	0.00438
6349.20045	0.00439
6347.27177	0.00441
6345.34309	0.00443
6343.41442	0.00444
6341.48574	0.00446
6339.55707	0.00446
6337.62839	0.00446
6335.69972	0.00448
6333.77104	0.00449
6331.84236	0.00450
6329.91369	0.00452
6327.98501	0.00454
6326.05634	0.00456
6324.12766	0.00458
6322.19899	0.00459
6320.27031	0.00459
6318.34163	0.00459
6316.41296	0.00458
6314.48428	0.00459
6312.55561	0.00461
6310.62693	0.00462
6308.69826	0.00463
6306.76958	0.00465
6304.84090	0.00466
6302.91223	0.00466
6300.98355	0.00467
6299.05488	0.00466
6297.12620	0.00466
6295.19753	0.00467
6293.26885	0.00470
6291.34017	0.00473
6289.41150	0.00475
6287.48282	0.00477
6285.55415	0.00477
6283.62547	0.00477
6281.69680	0.00477
6279.76812	0.00477
6277.83944	0.00479
6275.91077	0.00482
6273.98209	0.00482
6272.05342	0.00482
6270.12474	0.00482
6268.19607	0.00484
6266.26739	0.00485
6264.33871	0.00487
6262.41004	0.00488
6260.48136	0.00489
6258.55269	0.00491
6256.62401	0.00493
6254.69534	0.00495
6252.76666	0.00497
6250.83798	0.00498
6248.90931	0.00498
6246.98063	0.00498
6245.05196	0.00497
6243.12328	0.00496
6241.19461	0.00496
6239.26593	0.00498
6237.33725	0.00501
6235.40858	0.00502
6233.47990	0.00503
6231.55123	0.00504
6229.62255	0.00506
6227.69388	0.00506
6225.76520	0.00505
6223.83652	0.00504
6221.90785	0.00506
6219.97917	0.00507
6218.05050	0.00508
6216.12182	0.00510
6214.19315	0.00511
6212.26447	0.00511
6210.33579	0.00512
6208.40712	0.00514
6206.47844	0.00515
6204.54977	0.00515
6202.62109	0.00515
6200.69242	0.00517
6198.76374	0.00520
6196.83506	0.00523
6194.90639	0.00524
6192.97771	0.00524
6191.04904	0.00525
6189.12036	0.00527
6187.19169	0.00529
6185.26301	0.00530
6183.33433	0.00529
6181.40566	0.00529
6179.47698	0.00530
6177.54831	0.00533
6175.61963	0.00535
6173.69096	0.00535
6171.76228	0.00535
6169.83360	0.00536
6167.90493	0.00538
6165.97625	0.00538
6164.04758	0.00538
6162.11890	0.00540
6160.19023	0.00541
6158.26155	0.00541
6156.33287	0.00542
6154.40420	0.00543
6152.47552	0.00544
6150.54685	0.00545
6148.61817	0.00548
6146.68950	0.00551
6144.76082	0.00552
6142.83214	0.00554
6140.90347	0.00556
6138.97479	0.00557
6137.04612	0.00559
6135.11744	0.00559
6133.18877	0.00558
6131.26009	0.00557
6129.33141	0.00558
6127.40274	0.00559
6125.47406	0.00562
6123.54539	0.00564
6121.61671	0.00564
6119.68804	0.00564
6117.75936	0.00565
6115.83068	0.00566
6113.90201	0.00568
6111.97333	0.00570
6110.04466	0.00572
6108.11598	0.00574
6106.18731	0.00573
6104.25863	0.00574
6102.32995	0.00575
6100.40128	0.00578
6098.47260	0.00581
6096.54393	0.00582
6094.61525	0.00583
6092.68658	0.00585
6090.75790	0.00586
6088.82922	0.00586
6086.90055	0.00585
6084.97187	0.00585
6083.04320	0.00586
6081.11452	0.00587
6079.18585	0.00590
6077.25717	0.00594
6075.32849	0.00597
6073.39982	0.00598
6071.47114	0.00599
6069.54247	0.00602
6067.61379	0.00604
6065.68512	0.00604
6063.75644	0.00603
6061.82776	0.00604
6059.89909	0.00605
6057.97041	0.00606
6056.04174	0.00607
6054.11306	0.00607
6052.18439	0.00607
6050.25571	0.00609
6048.32703	0.00612
6046.39836	0.00614
6044.46968	0.00614
6042.54101	0.00615
6040.61233	0.00616
6038.68366	0.00618
6036.75498	0.00619
6034.82630	0.00620
6032.89763	0.00622
6030.96895	0.00624
6029.04028	0.00626
6027.11160	0.00627
6025.18293	0.00627
6023.25425	0.00628
6021.32557	0.00630
6019.39690	0.00631
6017.46822	0.00632
6015.53955	0.00634
6013.61087	0.00635
6011.68220	0.00637
6009.75352	0.00638
6007.82484	0.00638
6005.89617	0.00638
6003.96749	0.00640
6002.03882	0.00642
6000.11014	0.00644
5998.18147	0.00644
5996.25279	0.00644
5994.32411	0.00645
5992.39544	0.00647
5990.46676	0.00649
5988.53809	0.00650
5986.60941	0.00651
5984.68074	0.00654
5982.75206	0.00657
5980.82338	0.00659
5978.89471	0.00660
5976.96603	0.00660
5975.03736	0.00659
5973.10868	0.00659
5971.18001	0.00661
5969.25133	0.00663
5967.32265	0.00664
5965.39398	0.00665
5963.46530	0.00668
5961.53663	0.00670
5959.60795	0.00670
5957.67928	0.00670
5955.75060	0.00672
5953.82192	0.00676
5951.89325	0.00679
5949.96457	0.00682
5948.03590	0.00684
5946.10722	0.00684
5944.17855	0.00684
5942.24987	0.00686
5940.32119	0.00689
5938.39252	0.00692
5936.46384	0.00692
5934.53517	0.00690
5932.60649	0.00689
5930.67782	0.00691
5928.74914	0.00694
5926.82046	0.00696
5924.89179	0.00697
5922.96311	0.00697
5921.03444	0.00697
5919.10576	0.00698
5917.17709	0.00701
5915.24841	0.00705
5913.31973	0.00708
5911.39106	0.00708
5909.46238	0.00709
5907.53371	0.00709
5905.60503	0.00710
5903.67636	0.00712
5901.74768	0.00714
5899.81900	0.00714
5897.89033	0.00713
5895.96165	0.00714
5894.03298	0.00717
5892.10430	0.00721
5890.17563	0.00723
5888.24695	0.00725
5886.31827	0.00727
5884.38960	0.00727
5882.46092	0.00727
5880.53225	0.00727
5878.60357	0.00729
5876.67490	0.00731
5874.74622	0.00732
5872.81755	0.00733
5870.88887	0.00734
5868.96019	0.00737
5867.03152	0.00740
5865.10284	0.00743
5863.17417	0.00745
5861.24549	0.00747
5859.31682	0.00749
5857.38814	0.00750
5855.45946	0.00751
5853.53079	0.00753
5851.60211	0.00754
5849.67344	0.00755
5847.74476	0.00757
5845.81609	0.00759
5843.88741	0.00761
5841.95873	0.00763
5840.03006	0.00763
5838.10138	0.00764
5836.17271	0.00764
5834.24403	0.00765
5832.31536	0.00766
5830.38668	0.00768
5828.45800	0.00771
5826.52933	0.00774
5824.60065	0.00776
5822.67198	0.00777
5820.74330	0.00778
5818.81463	0.00780
5816.88595	0.00783
5814.95727	0.00783
5813.02860	0.00783
5811.09992	0.00785
5809.17125	0.00788
5807.24257	0.00789
5805.31390	0.00791
5803.38522	0.00794
5801.45654	0.00797
5799.52787	0.00798
5797.59919	0.00797
5795.67052	0.00797
5793.74184	0.00798
5791.81317	0.00800
5789.88449	0.00802
5787.95581	0.00805
5786.02714	0.00807
5784.09846	0.00810
5782.16979	0.00814
5780.24111	0.00816
5778.31244	0.00817
5776.38376	0.00818
5774.45508	0.00819
5772.52641	0.00820
5770.59773	0.00820
5768.66906	0.00820
5766.74038	0.00822
5764.81171	0.00825
5762.88303	0.00828
5760.95435	0.00830
5759.02568	0.00831
5757.09700	0.00833
5755.16833	0.00833
5753.23965	0.00834
5751.31098	0.00836
5749.38230	0.00838
5747.45362	0.00838
5745.52495	0.00840
5743.59627	0.00842
5741.66760	0.00844
5739.73892	0.00847
5737.81025	0.00848
5735.88157	0.00849
5733.95289	0.00849
5732.02422	0.00851
5730.09554	0.00853
5728.16687	0.00856
5726.23819	0.00859
5724.30952	0.00861
5722.38084	0.00862
5720.45216	0.00863
5718.52349	0.00864
5716.59481	0.00866
5714.66614	0.00869
5712.73746	0.00872
5710.80879	0.00874
5708.88011	0.00875
5706.95143	0.00876
5705.02276	0.00877
5703.09408	0.00880
5701.16541	0.00883
5699.23673	0.00884
5697.30806	0.00884
5695.37938	0.00884
5693.45070	0.00886
5691.52203	0.00888
5689.59335	0.00890
5687.66468	0.00891
5685.73600	0.00895
5683.80733	0.00899
5681.87865	0.00900
5679.94997	0.00899
5678.02130	0.00898
5676.09262	0.00900
5674.16395	0.00903
5672.23527	0.00907
5670.30660	0.00910
5668.37792	0.00912
5666.44924	0.00914
5664.52057	0.00915
5662.59189	0.00915
5660.66322	0.00915
5658.73454	0.00916
5656.80587	0.00919
5654.87719	0.00922
5652.94851	0.00925
5651.01984	0.00926
5649.09116	0.00928
5647.16249	0.00930
5645.23381	0.00932
5643.30514	0.00935
5641.37646	0.00937
5639.44778	0.00939
5637.51911	0.00940
5635.59043	0.00943
5633.66176	0.00946
5631.73308	0.00946
5629.80441	0.00946
5627.87573	0.00947
5625.94705	0.00950
5624.01838	0.00953
5622.08970	0.00955
5620.16103	0.00956
5618.23235	0.00957
5616.30368	0.00960
5614.37500	0.00963
5612.44632	0.00963
5610.51765	0.00963
5608.58897	0.00964
5606.66030	0.00966
5604.73162	0.00968
5602.80295	0.00969
5600.87427	0.00971
5598.94559	0.00973
5597.01692	0.00975
5595.08824	0.00978
5593.15957	0.00981
5591.23089	0.00984
5589.30222	0.00985
5587.37354	0.00988
5585.44486	0.00992
5583.51619	0.00994
5581.58751	0.00993
5579.65884	0.00993
5577.73016	0.00996
5575.80149	0.01000
5573.87281	0.01003
5571.94413	0.01005
5570.01546	0.01007
5568.08678	0.01009
5566.15811	0.01010
5564.22943	0.01010
5562.30076	0.01010
5560.37208	0.01009
5558.44340	0.01012
5556.51473	0.01016
5554.58605	0.01018
5552.65738	0.01020
5550.72870	0.01023
5548.80003	0.01027
5546.87135	0.01030
5544.94267	0.01031
5543.01400	0.01030
5541.08532	0.01029
5539.15665	0.01032
5537.22797	0.01038
5535.29930	0.01043
5533.37062	0.01045
5531.44194	0.01045
5529.51327	0.01046
5527.58459	0.01048
5525.65592	0.01049
5523.72724	0.01050
5521.79857	0.01051
5519.86989	0.01053
5517.94121	0.01055
5516.01254	0.01058
5514.08386	0.01061
5512.15519	0.01065
5510.22651	0.01069
5508.29784	0.01073
5506.36916	0.01075
5504.44048	0.01075
5502.51181	0.01076
5500.58313	0.01077
5498.65446	0.01079
5496.72578	0.01079
5494.79711	0.01080
5492.86843	0.01083
5490.93975	0.01087
5489.01108	0.01091
5487.08240	0.01093
5485.15373	0.01093
5483.22505	0.01094
5481.29638	0.01097
5479.36770	0.01100
5477.43902	0.01104
5475.51035	0.01107
5473.58167	0.01108
5471.65300	0.01108
5469.72432	0.01108
5467.79565	0.01111
5465.86697	0.01115
5463.93829	0.01117
5462.00962	0.01118
5460.08094	0.01120
5458.15227	0.01121
5456.22359	0.01121
5454.29492	0.01123
5452.36624	0.01126
5450.43756	0.01129
5448.50889	0.01129
5446.58021	0.01131
5444.65154	0.01133
5442.72286	0.01134
5440.79419	0.01137
5438.86551	0.01140
5436.93683	0.01143
5435.00816	0.01146
5433.07948	0.01147
5431.15081	0.01147
5429.22213	0.01147
5427.29346	0.01150
5425.36478	0.01154
5423.43610	0.01157
5421.50743	0.01160
5419.57875	0.01161
5417.65008	0.01162
5415.72140	0.01163
5413.79273	0.01166
5411.86405	0.01170
5409.93537	0.01175
5408.00670	0.01177
5406.07802	0.01178
5404.14935	0.01180
5402.22067	0.01183
5400.29200	0.01185
5398.36332	0.01185
5396.43464	0.01186
5394.50597	0.01189
5392.57729	0.01191
5390.64862	0.01193
5388.71994	0.01195
5386.79127	0.01197
5384.86259	0.01199
5382.93391	0.01203
5381.00524	0.01207
5379.07656	0.01208
5377.14789	0.01210
5375.21921	0.01213
5373.29054	0.01216
5371.36186	0.01219
5369.43318	0.01220
5367.50451	0.01221
5365.57583	0.01222
5363.64716	0.01224
5361.71848	0.01227
5359.78981	0.01230
5357.86113	0.01232
5355.93245	0.01232
5354.00378	0.01233
5352.07510	0.01235
5350.14643	0.01239
5348.21775	0.01241
5346.28908	0.01242
5344.36040	0.01243
5342.43172	0.01247
5340.50305	0.01250
5338.57437	0.01253
5336.64570	0.01255
5334.71702	0.01257
5332.78835	0.01259
5330.85967	0.01261
5328.93099	0.01265
5327.00232	0.01268
5325.07364	0.01272
5323.14497	0.01273
5321.21629	0.01273
5319.28762	0.01273
5317.35894	0.01275
5315.43026	0.01279
5313.50159	0.01283
5311.57291	0.01287
5309.64424	0.01290
5307.71556	0.01291
5305.78689	0.01293
5303.85821	0.01296
5301.92953	0.01298
5300.00086	0.01299
5298.07218	0.01301
5296.14351	0.01305
5294.21483	0.01308
5292.28616	0.01310
5290.35748	0.01313
5288.42880	0.01316
5286.50013	0.01318
5284.57145	0.01319
5282.64278	0.01320
5280.71410	0.01323
5278.78543	0.01325
5276.85675	0.01326
5274.92807	0.01328
5272.99940	0.01330
5271.07072	0.01333
5269.14205	0.01335
5267.21337	0.01340
5265.28470	0.01343
5263.35602	0.01344
5261.42734	0.01346
5259.49867	0.01349
5257.56999	0.01350
5255.64132	0.01352
5253.71264	0.01356
5251.78397	0.01359
5249.85529	0.01360
5247.92661	0.01360
5245.99794	0.01363
5244.06926	0.01365
5242.14059	0.01367
5240.21191	0.01369
5238.28324	0.01373
5236.35456	0.01376
5234.42588	0.01378
5232.49721	0.01380
5230.56853	0.01382
5228.63986	0.01385
5226.71118	0.01386
5224.78251	0.01386
5222.85383	0.01388
5220.92515	0.01391
5218.99648	0.01394
5217.06780	0.01398
5215.13913	0.01401
5213.21045	0.01404
5211.28178	0.01407
5209.35310	0.01409
5207.42442	0.01410
5205.49575	0.01412
5203.56707	0.01415
5201.63840	0.01418
5199.70972	0.01421
5197.78105	0.01424
5195.85237	0.01427
5193.92369	0.01431
5191.99502	0.01435
5190.06634	0.01436
5188.13767	0.01437
5186.20899	0.01437
5184.28032	0.01439
5182.35164	0.01443
5180.42296	0.01448
5178.49429	0.01451
5176.56561	0.01451
5174.63694	0.01451
5172.70826	0.01452
5170.77959	0.01456
5168.85091	0.01461
5166.92223	0.01464
5164.99356	0.01464
5163.06488	0.01466
5161.13621	0.01470
5159.20753	0.01473
5157.27886	0.01475
5155.35018	0.01477
5153.42150	0.01480
5151.49283	0.01484
5149.56415	0.01486
5147.63548	0.01487
5145.70680	0.01488
5143.77813	0.01488
5141.84945	0.01491
5139.92077	0.01495
5137.99210	0.01500
5136.06342	0.01504
5134.13475	0.01507
5132.20607	0.01509
5130.27740	0.01511
5128.34872	0.01514
5126.42004	0.01518
5124.49137	0.01519
5122.56269	0.01519
5120.63402	0.01520
5118.70534	0.01522
5116.77667	0.01525
5114.84799	0.01530
5112.91931	0.01535
5110.99064	0.01540
5109.06196	0.01542
5107.13329	0.01543
5105.20461	0.01542
5103.27594	0.01542
5101.34726	0.01544
5099.41858	0.01549
5097.48991	0.01553
5095.56123	0.01556
5093.63256	0.01558
5091.70388	0.01561
5089.77521	0.01564
5087.84653	0.01567
5085.91785	0.01570
5083.98918	0.01572
5082.06050	0.01574
5080.13183	0.01578
5078.20315	0.01581
5076.27448	0.01583
5074.34580	0.01584
5072.41712	0.01586
5070.48845	0.01588
5068.55977	0.01590
5066.63110	0.01593
5064.70242	0.01596
5062.77375	0.01599
5060.84507	0.01601
5058.91639	0.01604
5056.98772	0.01608
5055.05904	0.01609
5053.13037	0.01610
5051.20169	0.01613
5049.27302	0.01616
5047.34434	0.01619
5045.41566	0.01622
5043.48699	0.01625
5041.55831	0.01628
5039.62964	0.01630
5037.70096	0.01633
5035.77229	0.01636
5033.84361	0.01641
5031.91493	0.01646
5029.98626	0.01650
5028.05758	0.01651
5026.12891	0.01652
5024.20023	0.01654
5022.27156	0.01657
5020.34288	0.01658
5018.41420	0.01660
5016.48553	0.01664
5014.55685	0.01668
5012.62818	0.01672
5010.69950	0.01675
5008.77083	0.01676
5006.84215	0.01679
5004.91347	0.01683
5002.98480	0.01686
5001.05612	0.01688
4999.12745	0.01690
4997.19877	0.01690
4995.27010	0.01691
4993.34142	0.01693
4991.41274	0.01696
4989.48407	0.01700
4987.55539	0.01704
4985.62672	0.01709
4983.69804	0.01712
4981.76937	0.01713
4979.84069	0.01716
4977.91201	0.01719
4975.98334	0.01722
4974.05466	0.01724
4972.12599	0.01723
4970.19731	0.01725
4968.26864	0.01729
4966.33996	0.01736
4964.41128	0.01740
4962.48261	0.01742
4960.55393	0.01743
4958.62526	0.01746
4956.69658	0.01749
4954.76791	0.01754
4952.83923	0.01758
4950.91055	0.01760
4948.98188	0.01761
4947.05320	0.01762
4945.12453	0.01763
4943.19585	0.01764
4941.26718	0.01768
4939.33850	0.01773
4937.40982	0.01777
4935.48115	0.01779
4933.55247	0.01782
4931.62380	0.01784
4929.69512	0.01786
4927.76645	0.01788
4925.83777	0.01792
4923.90909	0.01797
4921.98042	0.01800
4920.05174	0.01800
4918.12307	0.01801
4916.19439	0.01804
4914.26572	0.01809
4912.33704	0.01813
4910.40836	0.01817
4908.47969	0.01821
4906.55101	0.01824
4904.62234	0.01825
4902.69366	0.01826
4900.76499	0.01829
4898.83631	0.01832
4896.90763	0.01835
4894.97896	0.01838
4893.05028	0.01840
4891.12161	0.01841
4889.19293	0.01844
4887.26426	0.01847
4885.33558	0.01852
4883.40690	0.01860
4881.47823	0.01865
4879.54955	0.01866
4877.62088	0.01866
4875.69220	0.01868
4873.76353	0.01872
4871.83485	0.01876
4869.90617	0.01879
4867.97750	0.01882
4866.04882	0.01884
4864.12015	0.01886
4862.19147	0.01888
4860.26280	0.01890
4858.33412	0.01894
4856.40544	0.01898
4854.47677	0.01902
4852.54809	0.01904
4850.61942	0.01908
4848.69074	0.01911
4846.76207	0.01912
4844.83339	0.01912
4842.90471	0.01915
4840.97604	0.01919
4839.04736	0.01922
4837.11869	0.01924
4835.19001	0.01928
4833.26134	0.01932
4831.33266	0.01937
4829.40398	0.01941
4827.47531	0.01944
4825.54663	0.01946
4823.61796	0.01948
4821.68928	0.01952
4819.76061	0.01956
4817.83193	0.01959
4815.90325	0.01960
4813.97458	0.01962
4812.04590	0.01967
4810.11723	0.01973
4808.18855	0.01976
4806.25988	0.01979
4804.33120	0.01980
4802.40252	0.01983
4800.47385	0.01988
4798.54517	0.01993
4796.61650	0.01995
4794.68782	0.01996
4792.75915	0.01999
4790.83047	0.02003
4788.90179	0.02006
4786.97312	0.02012
4785.04444	0.02015
4783.11577	0.02016
4781.18709	0.02017
4779.25842	0.02019
4777.32974	0.02022
4775.40106	0.02025
4773.47239	0.02028
4771.54371	0.02032
4769.61504	0.02037
4767.68636	0.02040
4765.75769	0.02042
4763.82901	0.02046
4761.90033	0.02051
4759.97166	0.02053
4758.04298	0.02055
4756.11431	0.02056
4754.18563	0.02059
4752.25696	0.02063
4750.32828	0.02067
4748.39960	0.02071
4746.47093	0.02075
4744.54225	0.02080
4742.61358	0.02083
4740.68490	0.02085
4738.75623	0.02088
4736.82755	0.02091
4734.89887	0.02094
4732.97020	0.02098
4731.04152	0.02103
4729.11285	0.02107
4727.18417	0.02110
4725.25550	0.02112
4723.32682	0.02114
4721.39814	0.02118
4719.46947	0.02123
4717.54079	0.02126
4715.61212	0.02128
4713.68344	0.02130
4711.75477	0.02134
4709.82609	0.02139
4707.89741	0.02142
4705.96874	0.02144
4704.04006	0.02147
4702.11139	0.02152
4700.18271	0.02157
4698.25404	0.02161
4696.32536	0.02165
4694.39668	0.02167
4692.46801	0.02169
4690.53933	0.02171
4688.61066	0.02175
4686.68198	0.02179
4684.75331	0.02182
4682.82463	0.02186
4680.89595	0.02190
4678.96728	0.02193
4677.03860	0.02194
4675.10993	0.02197
4673.18125	0.02201
4671.25258	0.02204
4669.32390	0.02209
4667.39522	0.02215
4665.46655	0.02220
4663.53787	0.02222
4661.60920	0.02223
4659.68052	0.02225
4657.75185	0.02230
4655.82317	0.02237
4653.89449	0.02241
4651.96582	0.02242
4650.03714	0.02244
4648.10847	0.02249
4646.17979	0.02255
4644.25112	0.02259
4642.32244	0.02261
4640.39376	0.02263
4638.46509	0.02267
4636.53641	0.02272
4634.60774	0.02277
4632.67906	0.02282
4630.75039	0.02286
4628.82171	0.02288
4626.89303	0.02291
4624.96436	0.02295
4623.03568	0.02298
4621.10701	0.02302
4619.17833	0.02306
4617.24966	0.02309
4615.32098	0.02313
4613.39230	0.02317
4611.46363	0.02323
4609.53495	0.02329
4607.60628	0.02332
4605.67760	0.02334
4603.74893	0.02338
4601.82025	0.02342
4599.89157	0.02346
4597.96290	0.02347
4596.03422	0.02348
4594.10555	0.02352
4592.17687	0.02358
4590.24820	0.02363
4588.31952	0.02367
4586.39084	0.02370
4584.46217	0.02375
4582.53349	0.02380
4580.60482	0.02386
4578.67614	0.02389
4576.74747	0.02391
4574.81879	0.02394
4572.89011	0.02399
4570.96144	0.02404
4569.03276	0.02408
4567.10409	0.02412
4565.17541	0.02416
4563.24674	0.02422
4561.31806	0.02427
4559.38938	0.02429
4557.46071	0.02431
4555.53203	0.02436
4553.60336	0.02441
4551.67468	0.02444
4549.74601	0.02447
4547.81733	0.02452
4545.88865	0.02455
4543.95998	0.02458
4542.03130	0.02462
4540.10263	0.02465
4538.17395	0.02469
4536.24528	0.02473
4534.31660	0.02478
4532.38792	0.02483
4530.45925	0.02487
4528.53057	0.02492
4526.60190	0.02497
4524.67322	0.02501
4522.74455	0.02506
4520.81587	0.02510
4518.88719	0.02512
4516.95852	0.02515
4515.02984	0.02521
4513.10117	0.02528
4511.17249	0.02533
4509.24382	0.02536
4507.31514	0.02537
4505.38646	0.02540
4503.45779	0.02543
4501.52911	0.02547
4499.60044	0.02550
4497.67176	0.02554
4495.74309	0.02561
4493.81441	0.02567
4491.88573	0.02571
4489.95706	0.02575
4488.02838	0.02580
4486.09971	0.02584
4484.17103	0.02588
4482.24236	0.02593
4480.31368	0.02597
4478.38500	0.02602
4476.45633	0.02607
4474.52765	0.02612
4472.59898	0.02614
4470.67030	0.02617
4468.74163	0.02624
4466.81295	0.02629
4464.88427	0.02633
4462.95560	0.02635
4461.02692	0.02640
4459.09825	0.02647
4457.16957	0.02655
4455.24090	0.02660
4453.31222	0.02662
4451.38354	0.02665
4449.45487	0.02671
4447.52619	0.02677
4445.59752	0.02681
4443.66884	0.02684
4441.74017	0.02690
4439.81149	0.02694
4437.88281	0.02698
4435.95414	0.02703
4434.02546	0.02708
4432.09679	0.02713
4430.16811	0.02718
4428.23944	0.02721
4426.31076	0.02724
4424.38208	0.02729
4422.45341	0.02735
4420.52473	0.02741
4418.59606	0.02746
4416.66738	0.02749
4414.73871	0.02752
4412.81003	0.02757
4410.88135	0.02763
4408.95268	0.02768
4407.02400	0.02773
4405.09533	0.02779
4403.16665	0.02786
4401.23798	0.02792
4399.30930	0.02796
4397.38062	0.02799
4395.45195	0.02805
4393.52327	0.02811
4391.59460	0.02815
4389.66592	0.02820
4387.73725	0.02825
4385.80857	0.02829
4383.87989	0.02834
4381.95122	0.02839
4380.02254	0.02845
4378.09387	0.02850
4376.16519	0.02856
4374.23652	0.02861
4372.30784	0.02864
4370.37916	0.02867
4368.45049	0.02870
4366.52181	0.02875
4364.59314	0.02882
4362.66446	0.02888
4360.73579	0.02893
4358.80711	0.02899
4356.87843	0.02904
4354.94976	0.02908
4353.02108	0.02914
4351.09241	0.02920
4349.16373	0.02926
4347.23506	0.02929
4345.30638	0.02931
4343.37770	0.02934
4341.44903	0.02941
4339.52035	0.02949
4337.59168	0.02955
4335.66300	0.02959
4333.73433	0.02962
4331.80565	0.02968
4329.87697	0.02976
4327.94830	0.02982
4326.01962	0.02987
4324.09095	0.02992
4322.16227	0.02997
4320.23360	0.03002
4318.30492	0.03008
4316.37624	0.03015
4314.44757	0.03021
4312.51889	0.03026
4310.59022	0.03031
4308.66154	0.03037
4306.73287	0.03044
4304.80419	0.03048
4302.87551	0.03051
4300.94684	0.03056
4299.01816	0.03062
4297.08949	0.03068
4295.16081	0.03076
4293.23214	0.03083
4291.30346	0.03088
4289.37478	0.03091
4287.44611	0.03096
4285.51743	0.03102
4283.58876	0.03107
4281.66008	0.03114
4279.73141	0.03120
4277.80273	0.03127
4275.87405	0.03136
4273.94538	0.03143
4272.01670	0.03147
4270.08803	0.03151
4268.15935	0.03158
4266.23068	0.03166
4264.30200	0.03173
4262.37332	0.03178
4260.44465	0.03181
4258.51597	0.03186
4256.58730	0.03193
4254.65862	0.03199
4252.72995	0.03205
4250.80127	0.03212
4248.87259	0.03219
4246.94392	0.03225
4245.01524	0.03230
4243.08657	0.03236
4241.15789	0.03242
4239.22922	0.03247
4237.30054	0.03251
4235.37186	0.03257
4233.44319	0.03263
4231.51451	0.03269
4229.58584	0.03276
4227.65716	0.03282
4225.72849	0.03287
4223.79981	0.03292
4221.87113	0.03298
4219.94246	0.03302
4218.01378	0.03307
4216.08511	0.03313
4214.15643	0.03321
4212.22776	0.03328
4210.29908	0.03334
4208.37040	0.03341
4206.44173	0.03349
4204.51305	0.03356
4202.58438	0.03362
4200.65570	0.03368
4198.72703	0.03372
4196.79835	0.03376
4194.86968	0.03382
4192.94100	0.03388
4191.01232	0.03395
4189.08365	0.03402
4187.15497	0.03410
4185.22630	0.03419
4183.29762	0.03424
4181.36895	0.03428
4179.44027	0.03433
4177.51159	0.03442
4175.58292	0.03450
4173.65424	0.03454
4171.72557	0.03458
4169.79689	0.03466
4167.86822	0.03476
4165.93954	0.03484
4164.01086	0.03491
4162.08219	0.03495
4160.15351	0.03500
4158.22484	0.03506
4156.29616	0.03513
4154.36749	0.03520
4152.43881	0.03528
4150.51013	0.03536
4148.58146	0.03545
4146.65278	0.03551
4144.72411	0.03555
4142.79543	0.03560
4140.86676	0.03567
4138.93808	0.03574
4137.00940	0.03580
4135.08073	0.03586
4133.15205	0.03593
4131.22338	0.03601
4129.29470	0.03610
4127.36603	0.03616
4125.43735	0.03622
4123.50867	0.03628
4121.58000	0.03636
4119.65132	0.03644
4117.72265	0.03652
4115.79397	0.03660
4113.86530	0.03666
4111.93662	0.03671
4110.00794	0.03677
4108.07927	0.03684
4106.15059	0.03691
4104.22192	0.03697
4102.29324	0.03704
4100.36457	0.03712
4098.43589	0.03721
4096.50721	0.03728
4094.57854	0.03734
4092.64986	0.03736
4090.72119	0.03740
4088.79251	0.03748
4086.86384	0.03758
4084.93516	0.03766
4083.00648	0.03773
4081.07781	0.03780
4079.14913	0.03786
4077.22046	0.03793
4075.29178	0.03801
4073.36311	0.03810
4071.43443	0.03817
4069.50575	0.03823
4067.57708	0.03829
4065.64840	0.03839
4063.71973	0.03850
4061.79105	0.03858
4059.86238	0.03864
4057.93370	0.03870
4056.00502	0.03878
4054.07635	0.03884
4052.14767	0.03891
4050.21900	0.03898
4048.29032	0.03905
4046.36165	0.03913
4044.43297	0.03922
4042.50429	0.03932
4040.57562	0.03941
4038.64694	0.03948
4036.71827	0.03953
4034.78959	0.03958
4032.86092	0.03964
4030.93224	0.03973
4029.00356	0.03984
4027.07489	0.03994
4025.14621	0.04002
4023.21754	0.04007
4021.28886	0.04011
4019.36019	0.04018
4017.43151	0.04025
4015.50283	0.04032
4013.57416	0.04041
4011.64548	0.04049
4009.71681	0.04056
4007.78813	0.04063
4005.85946	0.04071
4003.93078	0.04081
4002.00210	0.04089
4000.07343	0.04096
3998.14475	0.04102
3996.21608	0.04108
3994.28740	0.04116
3992.35873	0.04125
3990.43005	0.04137
3988.50137	0.04149
3986.57270	0.04158
3984.64402	0.04163
3982.71535	0.04168
3980.78667	0.04175
3978.85800	0.04184
3976.92932	0.04191
3975.00064	0.04196
3973.07197	0.04203
3971.14329	0.04210
3969.21462	0.04218
3967.28594	0.04227
3965.35727	0.04233
3963.42859	0.04240
3961.49991	0.04248
3959.57124	0.04258
3957.64256	0.04268
3955.71389	0.04278
3953.78521	0.04286
3951.85654	0.04293
3949.92786	0.04301
3947.99918	0.04309
3946.07051	0.04316
3944.14183	0.04323
3942.21316	0.04332
3940.28448	0.04343
3938.35581	0.04353
3936.42713	0.04359
3934.49845	0.04362
3932.56978	0.04365
3930.64110	0.04373
3928.71243	0.04384
3926.78375	0.04394
3924.85508	0.04401
3922.92640	0.04408
3920.99772	0.04414
3919.06905	0.04419
3917.14037	0.04429
3915.21170	0.04445
3913.28302	0.04461
3911.35435	0.04471
3909.42567	0.04477
3907.49699	0.04478
3905.56832	0.04473
3903.63964	0.04473
3901.71097	0.04480
3899.78229	0.04494
3897.85362	0.04512
3895.92494	0.04527
3893.99626	0.04535
3892.06759	0.04539
3890.13891	0.04547
3888.21024	0.04552
3886.28156	0.04554
3884.35289	0.04566
3882.42421	0.04581
3880.49553	0.04592
3878.56686	0.04604
3876.63818	0.04613
3874.70951	0.04617
3872.78083	0.04620
3870.85216	0.04622
3868.92348	0.04630
3866.99480	0.04644
3865.06613	0.04655
3863.13745	0.04667
3861.20878	0.04681
3859.28010	0.04690
3857.35143	0.04686
3855.42275	0.04669
3853.49407	0.04668
3851.56540	0.04697
3849.63672	0.04731
3847.70805	0.04750
3845.77937	0.04755
3843.85070	0.04756
3841.92202	0.04756
3839.99334	0.04756
3838.06467	0.04761
3836.13599	0.04777
3834.20732	0.04796
3832.27864	0.04810
3830.34997	0.04820
3828.42129	0.04831
3826.49261	0.04841
3824.56394	0.04848
3822.63526	0.04848
3820.70659	0.04854
3818.77791	0.04867
3816.84924	0.04876
3814.92056	0.04890
3812.99188	0.04908
3811.06321	0.04921
3809.13453	0.04922
3807.20586	0.04924
3805.27718	0.04930
3803.34851	0.04933
3801.41983	0.04938
3799.49115	0.04955
3797.56248	0.04971
3795.63380	0.04985
3793.70513	0.05000
3791.77645	0.05014
3789.84778	0.05023
3787.91910	0.05031
3785.99042	0.05039
3784.06175	0.05049
3782.13307	0.05058
3780.20440	0.05065
3778.27572	0.05072
3776.34705	0.05082
3774.41837	0.05092
3772.48969	0.05097
3770.56102	0.05100
3768.63234	0.05108
3766.70367	0.05122
3764.77499	0.05136
3762.84632	0.05149
3760.91764	0.05157
3758.98896	0.05163
3757.06029	0.05169
3755.13161	0.05172
3753.20294	0.05166
3751.27426	0.05161
3749.34559	0.05170
3747.41691	0.05176
3745.48823	0.05173
3743.55956	0.05189
3741.63088	0.05225
3739.70221	0.05242
3737.77353	0.05236
3735.84486	0.05236
3733.91618	0.05254
3731.98750	0.05279
3730.05883	0.05300
3728.13015	0.05310
3726.20148	0.05314
3724.27280	0.05323
3722.34413	0.05337
3720.41545	0.05352
3718.48677	0.05367
3716.55810	0.05376
3714.62942	0.05377
3712.70075	0.05374
3710.77207	0.05382
3708.84340	0.05400
3706.91472	0.05420
3704.98604	0.05431
3703.05737	0.05437
3701.12869	0.05446
3699.20002	0.05460
3697.27134	0.05471
3695.34267	0.05480
3693.41399	0.05480
3691.48531	0.05474
3689.55664	0.05476
3687.62796	0.05494
3685.69929	0.05520
3683.77061	0.05537
3681.84194	0.05544
3679.91326	0.05544
3677.98458	0.05537
3676.05591	0.05533
3674.12723	0.05548
3672.19856	0.05569
3670.26988	0.05582
3668.34121	0.05598
3666.41253	0.05618
3664.48385	0.05634
3662.55518	0.05647
3660.62650	0.05656
3658.69783	0.05655
3656.76915	0.05653
3654.84048	0.05658
3652.91180	0.05656
3650.98312	0.05639
3649.05445	0.05633
3647.12577	0.05651
3645.19710	0.05683
3643.26842	0.05712
3641.33975	0.05731
3639.41107	0.05742
3637.48239	0.05748
3635.55372	0.05753
3633.62504	0.05757
3631.69637	0.05752
3629.76769	0.05745
3627.83902	0.05755
3625.91034	0.05780
3623.98166	0.05796
3622.05299	0.05797
3620.12431	0.05795
3618.19564	0.05802
3616.26696	0.05817
3614.33829	0.05826
3612.40961	0.05830
3610.48093	0.05833
3608.55226	0.05840
3606.62358	0.05856
3604.69491	0.05872
3602.76623	0.05881
3600.83756	0.05887
3598.90888	0.05892
3596.98020	0.05895
3595.05153	0.05902
3593.12285	0.05911
3591.19418	0.05914
3589.26550	0.05909
3587.33683	0.05914
3585.40815	0.05936
3583.47947	0.05956
3581.55080	0.05966
3579.62212	0.05974
3577.69345	0.05982
3575.76477	0.05991
3573.83610	0.05996
3571.90742	0.05997
3569.97874	0.05996
3568.05007	0.05998
3566.12139	0.06009
3564.19272	0.06028
3562.26404	0.06044
3560.33537	0.06056
3558.40669	0.06068
3556.47801	0.06075
3554.54934	0.06076
3552.62066	0.06077
3550.69199	0.06084
3548.76331	0.06090
3546.83464	0.06094
3544.90596	0.06100
3542.97728	0.06112
3541.04861	0.06125
3539.11993	0.06134
3537.19126	0.06141
3535.26258	0.06148
3533.33391	0.06154
3531.40523	0.06155
3529.47655	0.06153
3527.54788	0.06153
3525.61920	0.06156
3523.69053	0.06162
3521.76185	0.06169
3519.83318	0.06177
3517.90450	0.06183
3515.97582	0.06187
3514.04715	0.06193
3512.11847	0.06199
3510.18980	0.06204
3508.26112	0.06208
3506.33245	0.06209
3504.40377	0.06211
3502.47509	0.06215
3500.54642	0.06220
3498.61774	0.06222
3496.68907	0.06224
3494.76039	0.06227
3492.83172	0.06230
3490.90304	0.06234
3488.97436	0.06237
3487.04569	0.06239
3485.11701	0.06240
3483.18834	0.06243
3481.25966	0.06250
3479.33099	0.06258
3477.40231	0.06265
3475.47363	0.06272
3473.54496	0.06280
3471.61628	0.06289
3469.68761	0.06298
3467.75893	0.06309
3465.83026	0.06319
3463.90158	0.06328
3461.97290	0.06339
3460.04423	0.06352
3458.11555	0.06364
3456.18688	0.06374
3454.25820	0.06385
3452.32953	0.06395
3450.40085	0.06403
3448.47217	0.06410
3446.54350	0.06417
3444.61482	0.06428
3442.68615	0.06439
3440.75747	0.06449
3438.82880	0.06462
3436.90012	0.06480
3434.97144	0.06500
3433.04277	0.06520
3431.11409	0.06539
3429.18542	0.06560
3427.25674	0.06581
3425.32807	0.06600
3423.39939	0.06616
3421.47071	0.06633
3419.54204	0.06651
3417.61336	0.06670
3415.68469	0.06690
3413.75601	0.06709
3411.82734	0.06725
3409.89866	0.06738
3407.96998	0.06752
3406.04131	0.06767
3404.11263	0.06779
3402.18396	0.06791
3400.25528	0.06806
3398.32661	0.06821
3396.39793	0.06834
3394.46925	0.06847
3392.54058	0.06863
3390.61190	0.06878
3388.68323	0.06891
3386.75455	0.06902
3384.82588	0.06915
3382.89720	0.06928
3380.96852	0.06943
3379.03985	0.06957
3377.11117	0.06968
3375.18250	0.06979
3373.25382	0.06994
3371.32515	0.07011
3369.39647	0.07026
3367.46779	0.07039
3365.53912	0.07052
3363.61044	0.07062
3361.68177	0.07071
3359.75309	0.07083
3357.82442	0.07098
3355.89574	0.07114
3353.96706	0.07129
3352.03839	0.07142
3350.10971	0.07154
3348.18104	0.07164
3346.25236	0.07175
3344.32369	0.07189
3342.39501	0.07202
3340.46633	0.07215
3338.53766	0.07228
3336.60898	0.07239
3334.68031	0.07250
3332.75163	0.07261
3330.82296	0.07274
3328.89428	0.07288
3326.96560	0.07301
3325.03693	0.07313
3323.10825	0.07325
3321.17958	0.07340
3319.25090	0.07356
3317.32223	0.07368
3315.39355	0.07377
3313.46487	0.07389
3311.53620	0.07404
3309.60752	0.07417
3307.67885	0.07428
3305.75017	0.07440
3303.82150	0.07454
3301.89282	0.07469
3299.96414	0.07483
3298.03547	0.07497
3296.10679	0.07508
3294.17812	0.07519
3292.24944	0.07533
3290.32077	0.07549
3288.39209	0.07564
3286.46341	0.07578
3284.53474	0.07594
3282.60606	0.07607
3280.67739	0.07619
3278.74871	0.07632
3276.82004	0.07645
3274.89136	0.07659
3272.96268	0.07674
3271.03401	0.07687
3269.10533	0.07699
3267.17666	0.07713
3265.24798	0.07729
3263.31931	0.07745
3261.39063	0.07761
3259.46195	0.07775
3257.53328	0.07787
3255.60460	0.07800
3253.67593	0.07814
3251.74725	0.07829
3249.81858	0.07844
3247.88990	0.07857
3245.96122	0.07871
3244.03255	0.07884
3242.10387	0.07899
3240.17520	0.07916
3238.24652	0.07932
3236.31785	0.07945
3234.38917	0.07957
3232.46049	0.07969
3230.53182	0.07984
3228.60314	0.07999
3226.67447	0.08014
3224.74579	0.08026
3222.81712	0.08037
3220.88844	0.08050
3218.95976	0.08064
3217.03109	0.08076
3215.10241	0.08088
3213.17374	0.08103
3211.24506	0.08120
3209.31639	0.08136
3207.38771	0.08151
3205.45903	0.08165
3203.53036	0.08179
3201.60168	0.08194
3199.67301	0.08207
3197.74433	0.08218
3195.81566	0.08230
3193.88698	0.08246
3191.95830	0.08264
3190.02963	0.08281
3188.10095	0.08297
3186.17228	0.08310
3184.24360	0.08324
3182.31493	0.08339
3180.38625	0.08354
3178.45757	0.08368
3176.52890	0.08384
3174.60022	0.08398
3172.67155	0.08414
3170.74287	0.08432
3168.81420	0.08447
3166.88552	0.08460
3164.95684	0.08476
3163.02817	0.08489
3161.09949	0.08501
3159.17082	0.08515
3157.24214	0.08530
3155.31347	0.08546
3153.38479	0.08560
3151.45611	0.08572
3149.52744	0.08588
3147.59876	0.08607
3145.67009	0.08623
3143.74141	0.08636
3141.81274	0.08648
3139.88406	0.08659
3137.95538	0.08667
3136.02671	0.08677
3134.09803	0.08691
3132.16936	0.08709
3130.24068	0.08729
3128.31201	0.08746
3126.38333	0.08761
3124.45465	0.08776
3122.52598	0.08791
3120.59730	0.08807
3118.66863	0.08821
3116.73995	0.08832
3114.81128	0.08844
3112.88260	0.08859
3110.95392	0.08873
3109.02525	0.08887
3107.09657	0.08901
3105.16790	0.08917
3103.23922	0.08932
3101.31055	0.08947
3099.38187	0.08963
3097.45319	0.08978
3095.52452	0.08991
3093.59584	0.09003
3091.66717	0.09015
3089.73849	0.09030
3087.80982	0.09046
3085.88114	0.09061
3083.95246	0.09074
3082.02379	0.09088
3080.09511	0.09102
3078.16644	0.09117
3076.23776	0.09133
3074.30909	0.09148
3072.38041	0.09159
3070.45173	0.09171
3068.52306	0.09185
3066.59438	0.09199
3064.66571	0.09214
3062.73703	0.09231
3060.80836	0.09248
3058.87968	0.09266
3056.95100	0.09283
3055.02233	0.09299
3053.09365	0.09311
3051.16498	0.09322
3049.23630	0.09335
3047.30763	0.09348
3045.37895	0.09362
3043.45027	0.09375
3041.52160	0.09388
3039.59292	0.09401
3037.66425	0.09415
3035.73557	0.09430
3033.80690	0.09447
3031.87822	0.09461
3029.94954	0.09474
3028.02087	0.09490
3026.09219	0.09508
3024.16352	0.09523
3022.23484	0.09537
3020.30617	0.09548
3018.37749	0.09557
3016.44881	0.09569
3014.52014	0.09586
3012.59146	0.09605
3010.66279	0.09623
3008.73411	0.09636
3006.80544	0.09648
3004.87676	0.09660
3002.94808	0.09673
3001.01941	0.09688
2999.09073	0.09703
2997.16206	0.09717
2995.23338	0.09733
2993.30471	0.09748
2991.37603	0.09758
2989.44735	0.09766
2987.51868	0.09777
2985.59000	0.09790
2983.66133	0.09800
2981.73265	0.09807
2979.80398	0.09812
2977.87530	0.09819
2975.94662	0.09824
2974.01795	0.09828
2972.08927	0.09828
2970.16060	0.09824
2968.23192	0.09820
2966.30325	0.09818
2964.37457	0.09820
2962.44589	0.09830
2960.51722	0.09845
2958.58854	0.09863
2956.65987	0.09883
2954.73119	0.09904
2952.80252	0.09926
2950.87384	0.09946
2948.94516	0.09963
2947.01649	0.09976
2945.08781	0.09984
2943.15914	0.09989
2941.23046	0.09993
2939.30179	0.09995
2937.37311	0.09997
2935.44443	0.09995
2933.51576	0.09994
2931.58708	0.09991
2929.65841	0.09984
2927.72973	0.09978
2925.80106	0.09977
2923.87238	0.09982
2921.94370	0.09986
2920.01503	0.09992
2918.08635	0.10007
2916.15768	0.10041
2914.22900	0.10088
2912.30033	0.10139
2910.37165	0.10183
2908.44297	0.10219
2906.51430	0.10247
2904.58562	0.10272
2902.65695	0.10293
2900.72827	0.10314
2898.79960	0.10336
2896.87092	0.10357
2894.94224	0.10377
2893.01357	0.10396
2891.08489	0.10415
2889.15622	0.10438
2887.22754	0.10461
2885.29887	0.10478
2883.37019	0.10489
2881.44151	0.10503
2879.51284	0.10520
2877.58416	0.10535
2875.65549	0.10547
2873.72681	0.10560
2871.79814	0.10573
2869.86946	0.10587
2867.94078	0.10600
2866.01211	0.10612
2864.08343	0.10623
2862.15476	0.10631
2860.22608	0.10634
2858.29741	0.10633
2856.36873	0.10629
2854.44005	0.10626
2852.51138	0.10626
2850.58270	0.10636
2848.65403	0.10665
2846.72535	0.10713
2844.79668	0.10763
2842.86800	0.10809
2840.93932	0.10847
2839.01065	0.10877
2837.08197	0.10901
2835.15330	0.10919
2833.22462	0.10936
2831.29595	0.10954
2829.36727	0.10973
2827.43859	0.10991
2825.50992	0.11007
2823.58124	0.11021
2821.65257	0.11036
2819.72389	0.11054
2817.79522	0.11072
2815.86654	0.11089
2813.93786	0.11108
2812.00919	0.11127
2810.08051	0.11144
2808.15184	0.11159
2806.22316	0.11175
2804.29449	0.11190
2802.36581	0.11202
2800.43713	0.11216
2798.50846	0.11232
2796.57978	0.11249
2794.65111	0.11269
2792.72243	0.11289
2790.79376	0.11304
2788.86508	0.11316
2786.93640	0.11329
2785.00773	0.11343
2783.07905	0.11359
2781.15038	0.11378
2779.22170	0.11399
2777.29303	0.11417
2775.36435	0.11428
2773.43567	0.11439
2771.50700	0.11453
2769.57832	0.11470
2767.64965	0.11486
2765.72097	0.11501
2763.79230	0.11517
2761.86362	0.11532
2759.93494	0.11546
2758.00627	0.11563
2756.07759	0.11580
2754.14892	0.11596
2752.22024	0.11610
2750.29157	0.11625
2748.36289	0.11641
2746.43421	0.11657
2744.50554	0.11671
2742.57686	0.11683
2740.64819	0.11699
2738.71951	0.11716
2736.79084	0.11731
2734.86216	0.11745
2732.93348	0.11760
2731.00481	0.11774
2729.07613	0.11788
2727.14746	0.11803
2725.21878	0.11818
2723.29011	0.11833
2721.36143	0.11847
2719.43275	0.11861
2717.50408	0.11878
2715.57540	0.11895
2713.64673	0.11910
2711.71805	0.11924
2709.78938	0.11940
2707.86070	0.11955
2705.93202	0.11970
2704.00335	0.11986
2702.07467	0.12004
2700.14600	0.12019
2698.21732	0.12031
2696.28865	0.12042
2694.35997	0.12054
2692.43129	0.12067
2690.50262	0.12083
2688.57394	0.12099
2686.64527	0.12114
2684.71659	0.12128
2682.78792	0.12142
2680.85924	0.12156
2678.93056	0.12172
2677.00189	0.12191
2675.07321	0.12207
2673.14454	0.12221
2671.21586	0.12235
2669.28719	0.12250
2667.35851	0.12264
2665.42983	0.12281
2663.50116	0.12299
2661.57248	0.12314
2659.64381	0.12328
2657.71513	0.12341
2655.78646	0.12356
2653.85778	0.12371
2651.92910	0.12386
2650.00043	0.12401
2648.07175	0.12417
2646.14308	0.12435
2644.21440	0.12452
2642.28573	0.12468
2640.35705	0.12485
2638.42837	0.12501
2636.49970	0.12513
2634.57102	0.12530
2632.64235	0.12554
2630.71367	0.12575
2628.78500	0.12589
2626.85632	0.12600
2624.92764	0.12612
2622.99897	0.12627
2621.07029	0.12644
2619.14162	0.12660
2617.21294	0.12676
2615.28427	0.12694
2613.35559	0.12711
2611.42691	0.12728
2609.49824	0.12746
2607.56956	0.12762
2605.64089	0.12774
2603.71221	0.12788
2601.78354	0.12805
2599.85486	0.12823
2597.92618	0.12841
2595.99751	0.12859
2594.06883	0.12876
2592.14016	0.12889
2590.21148	0.12901
2588.28281	0.12918
2586.35413	0.12940
2584.42545	0.12960
2582.49678	0.12973
2580.56810	0.12983
2578.63943	0.12997
2576.71075	0.13018
2574.78208	0.13037
2572.85340	0.13048
2570.92472	0.13059
2568.99605	0.13076
2567.06737	0.13095
2565.13870	0.13112
2563.21002	0.13125
2561.28135	0.13135
2559.35267	0.13146
2557.42399	0.13160
2555.49532	0.13176
2553.56664	0.13193
2551.63797	0.13209
2549.70929	0.13224
2547.78062	0.13239
2545.85194	0.13254
2543.92326	0.13270
2541.99459	0.13286
2540.06591	0.13299
2538.13724	0.13312
2536.20856	0.13330
2534.27989	0.13351
2532.35121	0.13370
2530.42253	0.13385
2528.49386	0.13399
2526.56518	0.13413
2524.63651	0.13427
2522.70783	0.13443
2520.77916	0.13461
2518.85048	0.13477
2516.92181	0.13493
2514.99313	0.13510
2513.06445	0.13524
2511.13578	0.13536
2509.20710	0.13551
2507.27843	0.13571
2505.34975	0.13590
2503.42108	0.13608
2501.49240	0.13624
2499.56372	0.13642
2497.63505	0.13660
2495.70637	0.13678
2493.77770	0.13695
2491.84902	0.13710
2489.92035	0.13726
2487.99167	0.13746
2486.06299	0.13767
2484.13432	0.13785
2482.20564	0.13805
2480.27697	0.13826
2478.34829	0.13845
2476.41962	0.13862
2474.49094	0.13877
2472.56226	0.13891
2470.63359	0.13904
2468.70491	0.13919
2466.77624	0.13937
2464.84756	0.13954
2462.91889	0.13968
2460.99021	0.13981
2459.06153	0.13993
2457.13286	0.14009
2455.20418	0.14029
2453.27551	0.14049
2451.34683	0.14069
2449.41816	0.14089
2447.48948	0.14108
2445.56080	0.14125
2443.63213	0.14140
2441.70345	0.14153
2439.77478	0.14168
2437.84610	0.14185
2435.91743	0.14201
2433.98875	0.14215
2432.06007	0.14233
2430.13140	0.14256
2428.20272	0.14275
2426.27405	0.14291
2424.34537	0.14306
2422.41670	0.14322
2420.48802	0.14339
2418.55934	0.14355
2416.63067	0.14369
2414.70199	0.14383
2412.77332	0.14400
2410.84464	0.14419
2408.91597	0.14439
2406.98729	0.14452
2405.05861	0.14462
2403.12994	0.14475
2401.20126	0.14496
2399.27259	0.14516
2397.34391	0.14534
2395.41524	0.14549
2393.48656	0.14563
2391.55788	0.14579
2389.62921	0.14598
2387.70053	0.14614
2385.77186	0.14626
2383.84318	0.14638
2381.91451	0.14653
2379.98583	0.14668
2378.05715	0.14679
2376.12848	0.14682
2374.19980	0.14681
2372.27113	0.14682
2370.34245	0.14687
2368.41378	0.14692
2366.48510	0.14698
2364.55642	0.14704
2362.62775	0.14712
2360.69907	0.14728
2358.77040	0.14752
2356.84172	0.14781
2354.91305	0.14815
2352.98437	0.14851
2351.05569	0.14884
2349.12702	0.14904
2347.19834	0.14913
2345.26967	0.14916
2343.34099	0.14923
2341.41232	0.14936
2339.48364	0.14949
2337.55496	0.14963
2335.62629	0.14980
2333.69761	0.14999
2331.76894	0.15017
2329.84026	0.15033
2327.91159	0.15052
2325.98291	0.15075
2324.05423	0.15099
2322.12556	0.15119
2320.19688	0.15138
2318.26821	0.15161
2316.33953	0.15184
2314.41086	0.15205
2312.48218	0.15226
2310.55350	0.15243
2308.62483	0.15258
2306.69615	0.15278
2304.76748	0.15301
2302.83880	0.15323
2300.91013	0.15346
2298.98145	0.15367
2297.05277	0.15384
2295.12410	0.15399
2293.19542	0.15414
2291.26675	0.15433
2289.33807	0.15454
2287.40940	0.15472
2285.48072	0.15489
2283.55204	0.15503
2281.62337	0.15512
2279.69469	0.15525
2277.76602	0.15544
2275.83734	0.15565
2273.90867	0.15579
2271.97999	0.15596
2270.05131	0.15619
2268.12264	0.15640
2266.19396	0.15657
2264.26529	0.15672
2262.33661	0.15688
2260.40794	0.15704
2258.47926	0.15718
2256.55058	0.15733
2254.62191	0.15749
2252.69323	0.15765
2250.76456	0.15782
2248.83588	0.15800
2246.90721	0.15818
2244.97853	0.15835
2243.04985	0.15850
2241.12118	0.15865
2239.19250	0.15883
2237.26383	0.15901
2235.33515	0.15917
2233.40648	0.15930
2231.47780	0.15944
2229.54912	0.15962
2227.62045	0.15980
2225.69177	0.15994
2223.76310	0.16007
2221.83442	0.16020
2219.90575	0.16036
2217.97707	0.16056
2216.04839	0.16076
2214.11972	0.16094
2212.19104	0.16109
2210.26237	0.16122
2208.33369	0.16134
2206.40502	0.16149
2204.47634	0.16169
2202.54766	0.16188
2200.61899	0.16205
2198.69031	0.16222
2196.76164	0.16242
2194.83296	0.16257
2192.90429	0.16267
2190.97561	0.16281
2189.04693	0.16299
2187.11826	0.16315
2185.18958	0.16329
2183.26091	0.16344
2181.33223	0.16358
2179.40356	0.16371
2177.47488	0.16389
2175.54620	0.16413
2173.61753	0.16434
2171.68885	0.16450
2169.76018	0.16466
2167.83150	0.16481
2165.90283	0.16497
2163.97415	0.16518
2162.04547	0.16537
2160.11680	0.16552
2158.18812	0.16567
2156.25945	0.16583
2154.33077	0.16600
2152.40210	0.16617
2150.47342	0.16633
2148.54474	0.16651
2146.61607	0.16668
2144.68739	0.16686
2142.75872	0.16703
2140.83004	0.16722
2138.90137	0.16741
2136.97269	0.16757
2135.04401	0.16771
2133.11534	0.16784
2131.18666	0.16800
2129.25799	0.16819
2127.32931	0.16837
2125.40064	0.16851
2123.47196	0.16866
2121.54328	0.16884
2119.61461	0.16901
2117.68593	0.16914
2115.75726	0.16927
2113.82858	0.16946
2111.89991	0.16966
2109.97123	0.16983
2108.04255	0.17002
2106.11388	0.17022
2104.18520	0.17040
2102.25653	0.17055
2100.32785	0.17071
2098.39918	0.17088
2096.47050	0.17105
2094.54182	0.17122
2092.61315	0.17137
2090.68447	0.17152
2088.75580	0.17168
2086.82712	0.17184
2084.89845	0.17200
2082.96977	0.17218
2081.04109	0.17236
2079.11242	0.17255
2077.18374	0.17272
2075.25507	0.17289
2073.32639	0.17307
2071.39772	0.17326
2069.46904	0.17343
2067.54036	0.17355
2065.61169	0.17368
2063.68301	0.17386
2061.75434	0.17406
2059.82566	0.17421
2057.89699	0.17434
2055.96831	0.17448
2054.03963	0.17467
2052.11096	0.17488
2050.18228	0.17504
2048.25361	0.17516
2046.32493	0.17529
2044.39626	0.17547
2042.46758	0.17569
2040.53890	0.17589
2038.61023	0.17608
2036.68155	0.17626
2034.75288	0.17644
2032.82420	0.17661
2030.89553	0.17678
2028.96685	0.17693
2027.03817	0.17707
2025.10950	0.17723
2023.18082	0.17739
2021.25215	0.17753
2019.32347	0.17769
2017.39480	0.17787
2015.46612	0.17807
2013.53744	0.17822
2011.60877	0.17835
2009.68009	0.17851
2007.75142	0.17874
2005.82274	0.17897
2003.89407	0.17913
2001.96539	0.17923
2000.03671	0.17937
1998.10804	0.17954
1996.17936	0.17969
1994.25069	0.17980
1992.32201	0.17992
1990.39334	0.18008
1988.46466	0.18025
1986.53598	0.18041
1984.60731	0.18061
1982.67863	0.18080
1980.74996	0.18095
1978.82128	0.18111
1976.89261	0.18126
1974.96393	0.18137
1973.03525	0.18148
1971.10658	0.18163
1969.17790	0.18175
1967.24923	0.18187
1965.32055	0.18203
1963.39188	0.18222
1961.46320	0.18241
1959.53452	0.18260
1957.60585	0.18276
1955.67717	0.18291
1953.74850	0.18309
1951.81982	0.18328
1949.89115	0.18341
1947.96247	0.18353
1946.03379	0.18363
1944.10512	0.18369
1942.17644	0.18383
1940.24777	0.18411
1938.31909	0.18439
1936.39042	0.18458
1934.46174	0.18474
1932.53306	0.18490
1930.60439	0.18504
1928.67571	0.18516
1926.74704	0.18529
1924.81836	0.18542
1922.88969	0.18554
1920.96101	0.18566
1919.03233	0.18575
1917.10366	0.18590
1915.17498	0.18614
1913.24631	0.18638
1911.31763	0.18660
1909.38896	0.18679
1907.46028	0.18695
1905.53160	0.18709
1903.60293	0.18722
1901.67425	0.18739
1899.74558	0.18757
1897.81690	0.18771
1895.88823	0.18780
1893.95955	0.18791
1892.03087	0.18802
1890.10220	0.18816
1888.17352	0.18838
1886.24485	0.18863
1884.31617	0.18881
1882.38750	0.18896
1880.45882	0.18913
1878.53014	0.18935
1876.60147	0.18954
1874.67279	0.18970
1872.74412	0.18979
1870.81544	0.18977
1868.88677	0.18976
1866.95809	0.18999
1865.02941	0.19034
1863.10074	0.19060
1861.17206	0.19079
1859.24339	0.19097
1857.31471	0.19114
1855.38604	0.19134
1853.45736	0.19158
1851.52868	0.19174
1849.60001	0.19175
1847.67133	0.19167
1845.74266	0.19155
1843.81398	0.19166
1841.88531	0.19213
1839.95663	0.19258
1838.02795	0.19281
1836.09928	0.19296
1834.17060	0.19307
1832.24193	0.19306
1830.31325	0.19302
1828.38458	0.19314
1826.45590	0.19334
1824.52722	0.19358
1822.59855	0.19391
1820.66987	0.19420
1818.74120	0.19438
1816.81252	0.19455
1814.88385	0.19469
1812.95517	0.19470
1811.02649	0.19472
1809.09782	0.19489
1807.16914	0.19516
1805.24047	0.19532
1803.31179	0.19532
1801.38312	0.19533
1799.45444	0.19554
1797.52576	0.19581
1795.59709	0.19589
1793.66841	0.19581
1791.73974	0.19585
1789.81106	0.19617
1787.88239	0.19651
1785.95371	0.19667
1784.02503	0.19675
1782.09636	0.19680
1780.16768	0.19687
1778.23901	0.19699
1776.31033	0.19701
1774.38166	0.19684
1772.45298	0.19672
1770.52430	0.19684
1768.59563	0.19714
1766.66695	0.19758
1764.73828	0.19793
1762.80960	0.19799
1760.88093	0.19798
1758.95225	0.19800
1757.02357	0.19801
1755.09490	0.19807
1753.16622	0.19800
1751.23755	0.19774
1749.30887	0.19763
1747.38020	0.19780
1745.45152	0.19801
1743.52284	0.19810
1741.59417	0.19810
1739.66549	0.19814
1737.73682	0.19804
1735.80814	0.19761
1733.87947	0.19738
1731.95079	0.19776
1730.02211	0.19830
1728.09344	0.19872
1726.16476	0.19907
1724.23609	0.19931
1722.30741	0.19936
1720.37874	0.19905
1718.45006	0.19867
1716.52138	0.19872
1714.59271	0.19917
1712.66403	0.19968
1710.73536	0.20004
1708.80668	0.20010
1706.87801	0.20000
1704.94933	0.19999
1703.02065	0.19983
1701.09198	0.19945
1699.16330	0.19934
1697.23463	0.19949
1695.30595	0.19983
1693.37728	0.20047
1691.44860	0.20088
1689.51992	0.20079
1687.59125	0.20041
1685.66257	0.19986
1683.73390	0.19974
1681.80522	0.20026
1679.87655	0.20081
1677.94787	0.20092
1676.01919	0.20076
1674.09052	0.20070
1672.16184	0.20067
1670.23317	0.20054
1668.30449	0.20072
1666.37582	0.20118
1664.44714	0.20141
1662.51846	0.20147
1660.58979	0.20159
1658.66111	0.20163
1656.73244	0.20117
1654.80376	0.20028
1652.87509	0.20000
1650.94641	0.20063
1649.01773	0.20107
1647.08906	0.20103
1645.16038	0.20126
1643.23171	0.20178
1641.30303	0.20209
1639.37436	0.20200
1637.44568	0.20165
1635.51700	0.20153
1633.58833	0.20193
1631.65965	0.20235
1629.73098	0.20239
1627.80230	0.20223
1625.87363	0.20193
1623.94495	0.20150
1622.01627	0.20132
1620.08760	0.20143
1618.15892	0.20169
1616.23025	0.20224
1614.30157	0.20299
1612.37290	0.20355
1610.44422	0.20384
1608.51554	0.20407
1606.58687	0.20432
1604.65819	0.20456
1602.72952	0.20476
1600.80084	0.20496
1598.87217	0.20518
1596.94349	0.20539
1595.01481	0.20560
1593.08614	0.20579
1591.15746	0.20592
1589.22879	0.20602
1587.30011	0.20615
1585.37144	0.20632
1583.44276	0.20650
1581.51408	0.20666
1579.58541	0.20664
1577.65673	0.20646
1575.72806	0.20651
1573.79938	0.20684
1571.87071	0.20689
1569.94203	0.20680
1568.01335	0.20706
1566.08468	0.20746
1564.15600	0.20764
1562.22733	0.20740
1560.29865	0.20669
1558.36998	0.20630
1556.44130	0.20681
1554.51262	0.20764
1552.58395	0.20816
1550.65527	0.20840
1548.72660	0.20857
1546.79792	0.20860
1544.86925	0.20828
1542.94057	0.20780
1541.01189	0.20754
1539.08322	0.20785
1537.15454	0.20857
1535.22587	0.20901
1533.29719	0.20910
1531.36852	0.20925
1529.43984	0.20935
1527.51116	0.20929
1525.58249	0.20925
1523.65381	0.20910
1521.72514	0.20889
1519.79646	0.20895
1517.86779	0.20923
1515.93911	0.20947
1514.01043	0.20964
1512.08176	0.20965
1510.15308	0.20940
1508.22441	0.20907
1506.29573	0.20925
1504.36706	0.20996
1502.43838	0.21047
1500.50970	0.21048
1498.58103	0.21022
1496.65235	0.21002
1494.72368	0.21009
1492.79500	0.21013
1490.86633	0.20985
1488.93765	0.20966
1487.00897	0.20981
1485.08030	0.21000
1483.15162	0.20999
1481.22295	0.20985
1479.29427	0.20961
1477.36560	0.20917
1475.43692	0.20855
1473.50824	0.20807
1471.57957	0.20798
1469.65089	0.20803
1467.72222	0.20786
1465.79354	0.20758
1463.86487	0.20741
1461.93619	0.20718
1460.00751	0.20659
1458.07884	0.20597
1456.15016	0.20593
1454.22149	0.20634
1452.29281	0.20664
1450.36414	0.20665
1448.43546	0.20661
1446.50678	0.20677
1444.57811	0.20704
1442.64943	0.20723
1440.72076	0.20723
1438.79208	0.20698
1436.86341	0.20684
1434.93473	0.20720
1433.00605	0.20770
1431.07738	0.20792
1429.14870	0.20802
1427.22003	0.20805
1425.29135	0.20803
1423.36268	0.20803
1421.43400	0.20790
1419.50532	0.20768
1417.57665	0.20777
1415.64797	0.20813
1413.71930	0.20838
1411.79062	0.20844
1409.86195	0.20839
1407.93327	0.20828
1406.00459	0.20817
1404.07592	0.20817
1402.14724	0.20820
1400.21857	0.20806
1398.28989	0.20781
1396.36122	0.20762
1394.43254	0.20763
1392.50386	0.20783
1390.57519	0.20785
1388.64651	0.20748
1386.71784	0.20709
1384.78916	0.20697
1382.86049	0.20703
1380.93181	0.20711
1379.00313	0.20713
1377.07446	0.20705
1375.14578	0.20691
1373.21711	0.20690
1371.28843	0.20698
1369.35976	0.20701
1367.43108	0.20699
1365.50240	0.20683
1363.57373	0.20661
1361.64505	0.20666
1359.71638	0.20694
1357.78770	0.20712
1355.85903	0.20718
1353.93035	0.20721
1352.00167	0.20722
1350.07300	0.20727
1348.14432	0.20739
1346.21565	0.20751
1344.28697	0.20758
1342.35830	0.20752
1340.42962	0.20736
1338.50094	0.20727
1336.57227	0.20729
1334.64359	0.20729
1332.71492	0.20720
1330.78624	0.20704
1328.85757	0.20687
1326.92889	0.20671
1325.00021	0.20656
1323.07154	0.20637
1321.14286	0.20615
1319.21419	0.20595
1317.28551	0.20582
1315.35684	0.20567
1313.42816	0.20549
1311.49948	0.20527
1309.57081	0.20501
1307.64213	0.20478
1305.71346	0.20461
1303.78478	0.20446
1301.85611	0.20422
1299.92743	0.20393
1297.99875	0.20376
1296.07008	0.20366
1294.14140	0.20352
1292.21273	0.20334
1290.28405	0.20313
1288.35538	0.20285
1286.42670	0.20261
1284.49802	0.20241
1282.56935	0.20220
1280.64067	0.20194
1278.71200	0.20160
1276.78332	0.20123
1274.85465	0.20081
1272.92597	0.20031
1270.99729	0.19968
1269.06862	0.19882
1267.13994	0.19783
1265.21127	0.19696
1263.28259	0.19638
1261.35392	0.19614
1259.42524	0.19617
1257.49656	0.19637
1255.56789	0.19661
1253.63921	0.19671
1251.71054	0.19655
1249.78186	0.19622
1247.85319	0.19590
1245.92451	0.19555
1243.99583	0.19519
1242.06716	0.19482
1240.13848	0.19435
1238.20981	0.19378
1236.28113	0.19319
1234.35246	0.19261
1232.42378	0.19203
1230.49510	0.19146
1228.56643	0.19092
1226.63775	0.19036
1224.70908	0.18980
1222.78040	0.18932
1220.85173	0.18892
1218.92305	0.18845
1216.99437	0.18790
1215.06570	0.18731
1213.13702	0.18671
1211.20835	0.18613
1209.27967	0.18560
1207.35100	0.18506
1205.42232	0.18444
1203.49364	0.18381
1201.56497	0.18323
1199.63629	0.18265
1197.70762	0.18205
1195.77894	0.18144
1193.85027	0.18084
1191.92159	0.18018
1189.99291	0.17941
1188.06424	0.17860
1186.13556	0.17778
1184.20689	0.17694
1182.27821	0.17610
1180.34954	0.17527
1178.42086	0.17444
1176.49218	0.17364
1174.56351	0.17287
1172.63483	0.17205
1170.70616	0.17116
1168.77748	0.17023
1166.84881	0.16932
1164.92013	0.16847
1162.99145	0.16761
1161.06278	0.16675
1159.13410	0.16592
1157.20543	0.16515
1155.27675	0.16441
1153.34808	0.16363
1151.41940	0.16279
1149.49072	0.16195
1147.56205	0.16117
1145.63337	0.16040
1143.70470	0.15952
1141.77602	0.15849
1139.84735	0.15741
1137.91867	0.15630
1135.98999	0.15508
1134.06132	0.15370
1132.13264	0.15210
1130.20397	0.15023
1128.27529	0.14812
1126.34662	0.14587
1124.41794	0.14349
1122.48926	0.14103
1120.56059	0.13860
1118.63191	0.13631
1116.70324	0.13421
1114.77456	0.13235
1112.84589	0.13074
1110.91721	0.12941
1108.98853	0.12836
1107.05986	0.12762
1105.13118	0.12714
1103.20251	0.12693
1101.27383	0.12705
1099.34516	0.12746
1097.41648	0.12809
1095.48780	0.12889
1093.55913	0.12981
1091.63045	0.13075
1089.70178	0.13159
1087.77310	0.13231
1085.84443	0.13293
1083.91575	0.13341
1081.98707	0.13373
1080.05840	0.13398
1078.12972	0.13419
1076.20105	0.13435
1074.27237	0.13448
1072.34370	0.13460
1070.41502	0.13472
1068.48634	0.13488
1066.55767	0.13504
1064.62899	0.13519
1062.70032	0.13533
1060.77164	0.13553
1058.84297	0.13584
1056.91429	0.13623
1054.98561	0.13656
1053.05694	0.13681
1051.12826	0.13708
1049.19959	0.13742
1047.27091	0.13776
1045.34224	0.13805
1043.41356	0.13844
1041.48488	0.13895
1039.55621	0.13945
1037.62753	0.13989
1035.69886	0.14029
1033.77018	0.14063
1031.84151	0.14096
1029.91283	0.14129
1027.98415	0.14162
1026.05548	0.14199
1024.12680	0.14232
1022.19813	0.14260
1020.26945	0.14301
1018.34078	0.14352
1016.41210	0.14396
1014.48342	0.14440
1012.55475	0.14498
1010.62607	0.14564
1008.69740	0.14628
1006.76872	0.14683
1004.84005	0.14727
1002.91137	0.14768
1000.98269	0.14806
999.05402	0.14839
997.12534	0.14861
995.19667	0.14873
993.26799	0.14883
991.33932	0.14894
989.41064	0.14902
987.48196	0.14904
985.55329	0.14903
983.62461	0.14901
981.69594	0.14897
979.76726	0.14889
977.83859	0.14873
975.90991	0.14851
973.98123	0.14831
972.05256	0.14816
970.12388	0.14803
968.19521	0.14786
966.26653	0.14765
964.33786	0.14746
962.40918	0.14725
960.48050	0.14703
958.55183	0.14685
956.62315	0.14677
954.69448	0.14669
952.76580	0.14652
950.83713	0.14631
948.90845	0.14609
946.97977	0.14594
945.05110	0.14576
943.12242	0.14543
941.19375	0.14501
939.26507	0.14459
937.33640	0.14415
935.40772	0.14368
933.47904	0.14324
931.55037	0.14281
929.62169	0.14229
927.69302	0.14164
925.76434	0.14099
923.83567	0.14042
921.90699	0.13992
919.97831	0.13938
918.04964	0.13876
916.12096	0.13799
914.19229	0.13713
912.26361	0.13632
910.33494	0.13560
908.40626	0.13489
906.47758	0.13423
904.54891	0.13367
902.62023	0.13315
900.69156	0.13259
898.76288	0.13201
896.83421	0.13143
894.90553	0.13088
892.97685	0.13039
891.04818	0.12992
889.11950	0.12945
887.19083	0.12897
885.26215	0.12852
883.33348	0.12812
881.40480	0.12777
879.47612	0.12743
877.54745	0.12717
875.61877	0.12697
873.69010	0.12675
871.76142	0.12651
869.83275	0.12632
867.90407	0.12613
865.97539	0.12589
864.04672	0.12565
862.11804	0.12553
860.18937	0.12548
858.26069	0.12537
856.33202	0.12521
854.40334	0.12502
852.47466	0.12476
850.54599	0.12446
848.61731	0.12412
846.68864	0.12376
844.75996	0.12346
842.83129	0.12322
840.90261	0.12297
838.97394	0.12264
837.04526	0.12220
835.11658	0.12161
833.18791	0.12082
831.25923	0.11986
829.33056	0.11880
827.40188	0.11768
825.47321	0.11664
823.54453	0.11575
821.61585	0.11500
819.68718	0.11434
817.75850	0.11379
815.82983	0.11330
813.90115	0.11286
811.97248	0.11250
810.04380	0.11221
808.11512	0.11204
806.18645	0.11191
804.25777	0.11180
802.32910	0.11172
800.40042	0.11149
798.47175	0.11097
796.54307	0.11038
794.61439	0.10991
792.68572	0.10952
790.75704	0.10919
788.82837	0.10894
786.89969	0.10876
784.97102	0.10856
783.04234	0.10827
781.11366	0.10797
779.18499	0.10771
777.25631	0.10742
775.32764	0.10708
773.39896	0.10671
771.47029	0.10630
769.54161	0.10588
767.61293	0.10549
765.68426	0.10512
763.75558	0.10471
761.82691	0.10424
759.89823	0.10370
757.96956	0.10313
756.04088	0.10252
754.11220	0.10185
752.18353	0.10116
750.25485	0.10053
748.32618	0.09993
746.39750	0.09923
744.46883	0.09838
742.54015	0.09747
740.61147	0.09660
738.68280	0.09598
736.75412	0.09569
734.82545	0.09563
732.89677	0.09565
730.96810	0.09571
729.03942	0.09583
727.11074	0.09596
725.18207	0.09606
723.25339	0.09615
721.32472	0.09628
719.39604	0.09644
717.46737	0.09668
715.53869	0.09707
713.61001	0.09757
711.68134	0.09795
709.75266	0.09812
707.82399	0.09820
705.89531	0.09823
703.96664	0.09811
702.03796	0.09781
700.10928	0.09738
698.18061	0.09687
696.25193	0.09627
694.32326	0.09565
692.39458	0.09505
690.46591	0.09447
688.53723	0.09396
686.60855	0.09353
684.67988	0.09314
682.75120	0.09265
680.82253	0.09205
678.89385	0.09151
676.96518	0.09099
675.03650	0.09028
673.10782	0.08943
671.17915	0.08852
669.25047	0.08762
667.32180	0.08685
665.39312	0.08615
663.46445	0.08534
661.53577	0.08442
659.60709	0.08352
657.67842	0.08269
655.74974	0.08195
653.82107	0.08123
651.89239	0.08045
649.96372	0.07954
648.03504	0.07856
646.10636	0.07765
644.17769	0.07675
642.24901	0.07574
640.32034	0.07468
638.39166	0.07369
636.46299	0.07273
634.53431	0.07160
632.60563	0.06999
630.67696	0.06749
628.74828	0.06384
626.81961	0.05932
624.89093	0.05485
622.96226	0.05128
621.03358	0.04892
619.10490	0.04762
617.17623	0.04677
615.24755	0.04586
613.31888	0.04485
611.39020	0.04393
609.46153	0.04345
607.53285	0.04350
605.60417	0.04386
603.67550	0.04439
601.74682	0.04515
599.81815	0.04609
597.88947	0.04697
595.96080	0.04762
594.03212	0.04806
592.10344	0.04834
590.17477	0.04848
588.24609	0.04849
586.31742	0.04834
584.38874	0.04803
582.46007	0.04774
580.53139	0.04749
578.60271	0.04708
576.67404	0.04646
574.74536	0.04583
572.81669	0.04523
570.88801	0.04456
568.95934	0.04386
567.03066	0.04329
565.10198	0.04291
563.17331	0.04269
561.24463	0.04254
559.31596	0.04232
557.38728	0.04206
555.45861	0.04181
553.52993	0.04161
551.60125	0.04145
549.67258	0.04134
547.74390	0.04116
545.81523	0.04086
543.88655	0.04060
541.95788	0.04046
540.02920	0.04031
538.10052	0.04008
536.17185	0.03984
534.24317	0.03962
532.31450	0.03942
530.38582	0.03919
528.45715	0.03888
526.52847	0.03856
524.59979	0.03830
522.67112	0.03802
520.74244	0.03761
518.81377	0.03712
516.88509	0.03651
514.95642	0.03581
513.02774	0.03532
511.09906	0.03519
509.17039	0.03515
507.24171	0.03490
505.31304	0.03447
503.38436	0.03410
501.45569	0.03379
499.52701	0.03341
497.59833	0.03293
495.66966	0.03235
493.74098	0.03166
491.81231	0.03091
489.88363	0.03026
487.95496	0.02974
486.02628	0.02927
484.09760	0.02883
482.16893	0.02835
480.24025	0.02778
478.31158	0.02720
476.38290	0.02664
474.45423	0.02603
472.52555	0.02541
470.59687	0.02493
468.66820	0.02456
466.73952	0.02422
464.81085	0.02391
462.88217	0.02367
460.95350	0.02345
459.02482	0.02321
457.09614	0.02305
455.16747	0.02309
453.23879	0.02319
451.31012	0.02319
449.38144	0.02313
447.45277	0.02307
445.52409	0.02300
443.59541	0.02281
441.66674	0.02252
439.73806	0.02216
437.80939	0.02169
435.88071	0.02118
433.95204	0.02068
432.02336	0.02009
430.09468	0.01944
428.16601	0.01884
426.23733	0.01826
424.30866	0.01758
422.37998	0.01677
420.45131	0.01603
418.52263	0.01542
416.59395	0.01480
414.66528	0.01412
412.73660	0.01339
410.80793	0.01272
408.87925	0.01226
406.95058	0.01184
405.02190	0.01123
403.09322	0.01049
401.16455	0.00974
399.23587	0.00909
397.30720	0.00855
395.37852	0.00809
393.44985	0.00764
391.52117	0.00714
389.59249	0.00661
387.66382	0.00613
385.73514	0.00571
383.80647	0.00528
381.87779	0.00482
379.94912	0.00442
378.02044	0.00411
376.09176	0.00379
374.16309	0.00347
372.23441	0.00321
370.30574	0.00298
368.37706	0.00273
