7496.76250	0.00121
7494.83382	0.00120
7492.90514	0.00120
7490.97647	0.00121
7489.04779	0.00121
7487.11912	0.00121
7485.19044	0.00122
7483.26177	0.00122
7481.33309	0.00122
7479.40441	0.00122
7477.47574	0.00123
7475.54706	0.00123
7473.61839	0.00124
7471.68971	0.00124
7469.76104	0.00122
7467.83236	0.00121
7465.90368	0.00122
7463.97501	0.00123
7462.04633	0.00124
7460.11766	0.00126
7458.18898	0.00128
7456.26031	0.00129
7454.33163	0.00129
7452.40295	0.00128
7450.47428	0.00126
7448.54560	0.00125
7446.61693	0.00126
7444.68825	0.00128
7442.75958	0.00129
7440.83090	0.00130
7438.90222	0.00131
7436.97355	0.00132
7435.04487	0.00132
7433.11620	0.00132
7431.18752	0.00131
7429.25885	0.00129
7427.33017	0.00128
7425.40149	0.00130
7423.47282	0.00132
7421.54414	0.00134
7419.61547	0.00135
7417.68679	0.00135
7415.75812	0.00135
7413.82944	0.00134
7411.90076	0.00133
7409.97209	0.00133
7408.04341	0.00133
7406.11474	0.00134
7404.18606	0.00134
7402.25739	0.00135
7400.32871	0.00135
7398.40003	0.00136
7396.47136	0.00136
7394.54268	0.00136
7392.61401	0.00137
7390.68533	0.00137
7388.75666	0.00137
7386.82798	0.00137
7384.89930	0.00137
7382.97063	0.00137
7381.04195	0.00137
7379.11328	0.00137
7377.18460	0.00138
7375.25593	0.00140
7373.32725	0.00139
7371.39857	0.00139
7369.46990	0.00139
7367.54122	0.00140
7365.61255	0.00141
7363.68387	0.00141
7361.75520	0.00141
7359.82652	0.00141
7357.89784	0.00142
7355.96917	0.00144
7354.04049	0.00145
7352.11182	0.00144
7350.18314	0.00144
7348.25447	0.00144
7346.32579	0.00144
7344.39711	0.00145
7342.46844	0.00146
7340.53976	0.00146
7338.61109	0.00146
7336.68241	0.00148
7334.75374	0.00149
7332.82506	0.00151
7330.89638	0.00152
7328.96771	0.00152
7327.03903	0.00151
7325.11036	0.00150
7323.18168	0.00149
7321.25301	0.00149
7319.32433	0.00148
7317.39565	0.00149
7315.46698	0.00150
7313.53830	0.00152
7311.60963	0.00152
7309.68095	0.00152
7307.75228	0.00152
7305.82360	0.00153
7303.89492	0.00154
7301.96625	0.00154
7300.03757	0.00155
7298.10890	0.00154
7296.18022	0.00152
7294.25155	0.00153
7292.32287	0.00155
7290.39419	0.00155
7288.46552	0.00155
7286.53684	0.00156
7284.60817	0.00157
7282.67949	0.00157
7280.75082	0.00158
7278.82214	0.00159
7276.89346	0.00160
7274.96479	0.00161
7273.03611	0.00163
7271.10744	0.00163
7269.17876	0.00162
7267.25009	0.00161
7265.32141	0.00162
7263.39273	0.00162
7261.46406	0.00162
7259.53538	0.00162
7257.60671	0.00162
7255.67803	0.00162
7253.74936	0.00162
7251.82068	0.00163
7249.89200	0.00165
7247.96333	0.00165
7246.03465	0.00164
7244.10598	0.00165
7242.17730	0.00166
7240.24863	0.00165
7238.31995	0.00164
7236.39127	0.00165
7234.46260	0.00168
7232.53392	0.00170
7230.60525	0.00170
7228.67657	0.00170
7226.74790	0.00171
7224.81922	0.00171
7222.89054	0.00172
7220.96187	0.00172
7219.03319	0.00171
7217.10452	0.00170
7215.17584	0.00171
7213.24717	0.00172
7211.31849	0.00173
7209.38981	0.00173
7207.46114	0.00172
7205.53246	0.00172
7203.60379	0.00172
7201.67511	0.00174
7199.74644	0.00174
7197.81776	0.00175
7195.88908	0.00175
7193.96041	0.00176
7192.03173	0.00177
7190.10306	0.00177
7188.17438	0.00176
7186.24571	0.00176
7184.31703	0.00176
7182.38835	0.00176
7180.45968	0.00176
7178.53100	0.00177
7176.60233	0.00177
7174.67365	0.00178
7172.74498	0.00178
7170.81630	0.00180
7168.88762	0.00181
7166.95895	0.00181
7165.03027	0.00181
7163.10160	0.00182
7161.17292	0.00182
7159.24425	0.00181
7157.31557	0.00180
7155.38689	0.00181
7153.45822	0.00182
7151.52954	0.00182
7149.60087	0.00181
7147.67219	0.00182
7145.74352	0.00184
7143.81484	0.00184
7141.88616	0.00184
7139.95749	0.00185
7138.02881	0.00186
7136.10014	0.00187
7134.17146	0.00187
7132.24279	0.00188
7130.31411	0.00188
7128.38543	0.00189
7126.45676	0.00189
7124.52808	0.00189
7122.59941	0.00188
7120.67073	0.00188
7118.74206	0.00188
7116.81338	0.00190
7114.88470	0.00192
7112.95603	0.00194
7111.02735	0.00195
7109.09868	0.00195
7107.17000	0.00195
7105.24133	0.00195
7103.31265	0.00195
7101.38397	0.00196
7099.45530	0.00196
7097.52662	0.00196
7095.59795	0.00197
7093.66927	0.00198
7091.74060	0.00198
7089.81192	0.00199
7087.88324	0.00200
7085.95457	0.00199
7084.02589	0.00199
7082.09722	0.00199
7080.16854	0.00200
7078.23987	0.00201
7076.31119	0.00200
7074.38251	0.00200
7072.45384	0.00200
7070.52516	0.00201
7068.59649	0.00203
7066.66781	0.00203
7064.73914	0.00202
7062.81046	0.00201
7060.88178	0.00202
7058.95311	0.00203
7057.02443	0.00204
7055.09576	0.00204
7053.16708	0.00205
7051.23841	0.00206
7049.30973	0.00206
7047.38105	0.00206
7045.45238	0.00206
7043.52370	0.00208
7041.59503	0.00210
7039.66635	0.00212
7037.73768	0.00211
7035.80900	0.00210
7033.88032	0.00209
7031.95165	0.00209
7030.02297	0.00209
7028.09430	0.00209
7026.16562	0.00212
7024.23695	0.00215
7022.30827	0.00215
7020.37959	0.00215
7018.45092	0.00216
7016.52224	0.00217
7014.59357	0.00216
7012.66489	0.00216
7010.73622	0.00215
7008.80754	0.00215
7006.87886	0.00216
7004.95019	0.00218
7003.02151	0.00218
7001.09284	0.00218
6999.16416	0.00218
6997.23549	0.00218
6995.30681	0.00220
6993.37813	0.00220
6991.44946	0.00218
6989.52078	0.00219
6987.59211	0.00220
6985.66343	0.00221
6983.73476	0.00222
6981.80608	0.00223
6979.87740	0.00222
6977.94873	0.00222
6976.02005	0.00224
6974.09138	0.00226
6972.16270	0.00226
6970.23403	0.00226
6968.30535	0.00226
6966.37667	0.00226
6964.44800	0.00227
6962.51932	0.00228
6960.59065	0.00230
6958.66197	0.00231
6956.73330	0.00232
6954.80462	0.00232
6952.87594	0.00231
6950.94727	0.00230
6949.01859	0.00229
6947.08992	0.00230
6945.16124	0.00231
6943.23257	0.00232
6941.30389	0.00233
6939.37521	0.00233
6937.44654	0.00234
6935.51786	0.00234
6933.58919	0.00234
6931.66051	0.00235
6929.73184	0.00236
6927.80316	0.00236
6925.87448	0.00235
6923.94581	0.00235
6922.01713	0.00236
6920.08846	0.00238
6918.15978	0.00238
6916.23111	0.00239
6914.30243	0.00240
6912.37375	0.00241
6910.44508	0.00241
6908.51640	0.00241
6906.58773	0.00242
6904.65905	0.00243
6902.73038	0.00243
6900.80170	0.00242
6898.87302	0.00243
6896.94435	0.00245
6895.01567	0.00246
6893.08700	0.00246
6891.15832	0.00246
6889.22965	0.00247
6887.30097	0.00248
6885.37229	0.00248
6883.44362	0.00248
6881.51494	0.00249
6879.58627	0.00250
6877.65759	0.00249
6875.72892	0.00249
6873.80024	0.00250
6871.87156	0.00250
6869.94289	0.00252
6868.01421	0.00253
6866.08554	0.00254
6864.15686	0.00255
6862.22819	0.00255
6860.29951	0.00254
6858.37083	0.00254
6856.44216	0.00254
6854.51348	0.00254
6852.58481	0.00254
6850.65613	0.00255
6848.72746	0.00255
6846.79878	0.00256
6844.87010	0.00255
6842.94143	0.00256
6841.01275	0.00257
6839.08408	0.00259
6837.15540	0.00260
6835.22673	0.00262
6833.29805	0.00262
6831.36937	0.00262
6829.44070	0.00263
6827.51202	0.00264
6825.58335	0.00264
6823.65467	0.00264
6821.72600	0.00263
6819.79732	0.00262
6817.86864	0.00263
6815.93997	0.00265
6814.01129	0.00266
6812.08262	0.00267
6810.15394	0.00267
6808.22527	0.00268
6806.29659	0.00268
6804.36791	0.00268
6802.43924	0.00269
6800.51056	0.00271
6798.58189	0.00271
6796.65321	0.00271
6794.72454	0.00273
6792.79586	0.00274
6790.86718	0.00274
6788.93851	0.00274
6787.00983	0.00275
6785.08116	0.00277
6783.15248	0.00276
6781.22381	0.00275
6779.29513	0.00274
6777.36645	0.00274
6775.43778	0.00277
6773.50910	0.00279
6771.58043	0.00281
6769.65175	0.00281
6767.72308	0.00281
6765.79440	0.00282
6763.86572	0.00282
6761.93705	0.00281
6760.00837	0.00280
6758.07970	0.00282
6756.15102	0.00285
6754.22235	0.00286
6752.29367	0.00287
6750.36499	0.00287
6748.43632	0.00287
6746.50764	0.00286
6744.57897	0.00285
6742.65029	0.00286
6740.72162	0.00288
6738.79294	0.00289
6736.86426	0.00290
6734.93559	0.00292
6733.00691	0.00292
6731.07824	0.00293
6729.14956	0.00293
6727.22089	0.00292
6725.29221	0.00292
6723.36353	0.00291
6721.43486	0.00292
6719.50618	0.00294
6717.57751	0.00296
6715.64883	0.00297
6713.72016	0.00298
6711.79148	0.00298
6709.86280	0.00299
6707.93413	0.00299
6706.00545	0.00299
6704.07678	0.00298
6702.14810	0.00299
6700.21943	0.00301
6698.29075	0.00301
6696.36207	0.00302
6694.43340	0.00303
6692.50472	0.00303
6690.57605	0.00303
6688.64737	0.00304
6686.71870	0.00305
6684.79002	0.00306
6682.86134	0.00307
6680.93267	0.00309
6679.00399	0.00310
6677.07532	0.00310
6675.14664	0.00311
6673.21797	0.00312
6671.28929	0.00315
6669.36061	0.00315
6667.43194	0.00315
6665.50326	0.00314
6663.57459	0.00314
6661.64591	0.00316
6659.71724	0.00319
6657.78856	0.00320
6655.85988	0.00320
6653.93121	0.00318
6652.00253	0.00318
6650.07386	0.00319
6648.14518	0.00320
6646.21651	0.00321
6644.28783	0.00322
6642.35915	0.00322
6640.43048	0.00323
6638.50180	0.00323
6636.57313	0.00324
6634.64445	0.00325
6632.71578	0.00326
6630.78710	0.00327
6628.85842	0.00327
6626.92975	0.00327
6625.00107	0.00328
6623.07240	0.00331
6621.14372	0.00333
6619.21505	0.00333
6617.28637	0.00331
6615.35769	0.00330
6613.42902	0.00331
6611.50034	0.00332
6609.57167	0.00332
6607.64299	0.00332
6605.71432	0.00333
6603.78564	0.00334
6601.85696	0.00335
6599.92829	0.00335
6597.99961	0.00335
6596.07094	0.00336
6594.14226	0.00337
6592.21359	0.00338
6590.28491	0.00339
6588.35623	0.00340
6586.42756	0.00341
6584.49888	0.00342
6582.57021	0.00343
6580.64153	0.00343
6578.71286	0.00343
6576.78418	0.00344
6574.85550	0.00347
6572.92683	0.00347
6570.99815	0.00346
6569.06948	0.00346
6567.14080	0.00345
6565.21213	0.00346
6563.28345	0.00347
6561.35477	0.00348
6559.42610	0.00348
6557.49742	0.00349
6555.56875	0.00350
6553.64007	0.00352
6551.71140	0.00353
6549.78272	0.00354
6547.85404	0.00355
6545.92537	0.00355
6543.99669	0.00356
6542.06802	0.00357
6540.13934	0.00359
6538.21067	0.00360
6536.28199	0.00360
6534.35331	0.00361
6532.42464	0.00363
6530.49596	0.00364
6528.56729	0.00365
6526.63861	0.00364
6524.70994	0.00364
6522.78126	0.00365
6520.85258	0.00368
6518.92391	0.00369
6516.99523	0.00369
6515.06656	0.00368
6513.13788	0.00367
6511.20921	0.00366
6509.28053	0.00368
6507.35185	0.00370
6505.42318	0.00370
6503.49450	0.00371
6501.56583	0.00372
6499.63715	0.00374
6497.70848	0.00374
6495.77980	0.00375
6493.85112	0.00376
6491.92245	0.00377
6489.99377	0.00378
6488.06510	0.00378
6486.13642	0.00379
6484.20775	0.00381
6482.27907	0.00383
6480.35039	0.00385
6478.42172	0.00385
6476.49304	0.00384
6474.56437	0.00384
6472.63569	0.00385
6470.70702	0.00385
6468.77834	0.00386
6466.84966	0.00389
6464.92099	0.00391
6462.99231	0.00390
6461.06364	0.00389
6459.13496	0.00389
6457.20629	0.00390
6455.27761	0.00392
6453.34893	0.00394
6451.42026	0.00395
6449.49158	0.00395
6447.56291	0.00396
6445.63423	0.00397
6443.70556	0.00398
6441.77688	0.00399
6439.84820	0.00399
6437.91953	0.00400
6435.99085	0.00401
6434.06218	0.00400
6432.13350	0.00401
6430.20483	0.00404
6428.27615	0.00406
6426.34747	0.00406
6424.41880	0.00406
6422.49012	0.00406
6420.56145	0.00405
6418.63277	0.00404
6416.70410	0.00406
6414.77542	0.00409
6412.84674	0.00412
6410.91807	0.00414
6408.98939	0.00415
6407.06072	0.00415
6405.13204	0.00415
6403.20337	0.00416
6401.27469	0.00416
6399.34601	0.00417
6397.41734	0.00417
6395.48866	0.00418
6393.55999	0.00419
6391.63131	0.00421
6389.70264	0.00424
6387.77396	0.00426
6385.84528	0.00426
6383.91661	0.00426
6381.98793	0.00426
6380.05926	0.00426
6378.13058	0.00425
6376.20191	0.00425
6374.27323	0.00427
6372.34455	0.00430
6370.41588	0.00431
6368.48720	0.00430
6366.55853	0.00430
6364.62985	0.00431
6362.70118	0.00434
6360.77250	0.00436
6358.84382	0.00437
6356.91515	0.00436
6354.98647	0.00437
6353.05780	0.00439
6351.12912	0.00440
6349.20045	0.00440
6347.27177	0.00441
6345.34309	0.00441
6343.41442	0.00442
6341.48574	0.00443
6339.55707	0.00444
6337.62839	0.00446
6335.69972	0.00447
6333.77104	0.00447
6331.84236	0.00448
6329.91369	0.00449
6327.98501	0.00450
6326.05634	0.00451
6324.12766	0.00452
6322.19899	0.00454
6320.27031	0.00454
6318.34163	0.00455
6316.41296	0.00456
6314.48428	0.00457
6312.55561	0.00458
6310.62693	0.00458
6308.69826	0.00459
6306.76958	0.00460
6304.84090	0.00460
6302.91223	0.00461
6300.98355	0.00463
6299.05488	0.00463
6297.12620	0.00465
6295.19753	0.00467
6293.26885	0.00468
6291.34017	0.00468
6289.41150	0.00468
6287.48282	0.00469
6285.55415	0.00470
6283.62547	0.00471
6281.69680	0.00472
6279.76812	0.00472
6277.83944	0.00473
6275.91077	0.00475
6273.98209	0.00477
6272.05342	0.00479
6270.12474	0.00479
6268.19607	0.00479
6266.26739	0.00479
6264.33871	0.00481
6262.41004	0.00484
6260.48136	0.00486
6258.55269	0.00485
6256.62401	0.00485
6254.69534	0.00485
6252.76666	0.00487
6250.83798	0.00488
6248.90931	0.00489
6246.98063	0.00490
6245.05196	0.00492
6243.12328	0.00495
6241.19461	0.00495
6239.26593	0.00494
6237.33725	0.00494
6235.40858	0.00494
6233.47990	0.00496
6231.55123	0.00498
6229.62255	0.00499
6227.69388	0.00499
6225.76520	0.00501
6223.83652	0.00503
6221.90785	0.00505
6219.97917	0.00506
6218.05050	0.00507
6216.12182	0.00508
6214.19315	0.00508
6212.26447	0.00508
6210.33579	0.00510
6208.40712	0.00512
6206.47844	0.00515
6204.54977	0.00516
6202.62109	0.00517
6200.69242	0.00516
6198.76374	0.00516
6196.83506	0.00517
6194.90639	0.00517
6192.97771	0.00518
6191.04904	0.00520
6189.12036	0.00523
6187.19169	0.00525
6185.26301	0.00524
6183.33433	0.00523
6181.40566	0.00523
6179.47698	0.00524
6177.54831	0.00526
6175.61963	0.00530
6173.69096	0.00532
6171.76228	0.00533
6169.83360	0.00533
6167.90493	0.00534
6165.97625	0.00537
6164.04758	0.00539
6162.11890	0.00539
6160.19023	0.00540
6158.26155	0.00541
6156.33287	0.00542
6154.40420	0.00543
6152.47552	0.00543
6150.54685	0.00543
6148.61817	0.00543
6146.68950	0.00546
6144.76082	0.00549
6142.83214	0.00552
6140.90347	0.00554
6138.97479	0.00553
6137.04612	0.00552
6135.11744	0.00554
6133.18877	0.00556
6131.26009	0.00557
6129.33141	0.00556
6127.40274	0.00557
6125.47406	0.00558
6123.54539	0.00561
6121.61671	0.00563
6119.68804	0.00564
6117.75936	0.00563
6115.83068	0.00562
6113.90201	0.00564
6111.97333	0.00566
6110.04466	0.00567
6108.11598	0.00568
6106.18731	0.00569
6104.25863	0.00571
6102.32995	0.00574
6100.40128	0.00575
6098.47260	0.00577
6096.54393	0.00579
6094.61525	0.00580
6092.68658	0.00581
6090.75790	0.00581
6088.82922	0.00580
6086.90055	0.00580
6084.97187	0.00580
6083.04320	0.00582
6081.11452	0.00584
6079.18585	0.00586
6077.25717	0.00588
6075.32849	0.00590
6073.39982	0.00592
6071.47114	0.00594
6069.54247	0.00596
6067.61379	0.00597
6065.68512	0.00598
6063.75644	0.00599
6061.82776	0.00600
6059.89909	0.00602
6057.97041	0.00601
6056.04174	0.00602
6054.11306	0.00602
6052.18439	0.00603
6050.25571	0.00605
6048.32703	0.00607
6046.39836	0.00608
6044.46968	0.00610
6042.54101	0.00611
6040.61233	0.00610
6038.68366	0.00610
6036.75498	0.00613
6034.82630	0.00616
6032.89763	0.00617
6030.96895	0.00618
6029.04028	0.00620
6027.11160	0.00624
6025.18293	0.00627
6023.25425	0.00627
6021.32557	0.00627
6019.39690	0.00626
6017.46822	0.00626
6015.53955	0.00626
6013.61087	0.00627
6011.68220	0.00628
6009.75352	0.00630
6007.82484	0.00633
6005.89617	0.00635
6003.96749	0.00637
6002.03882	0.00637
6000.11014	0.00637
5998.18147	0.00638
5996.25279	0.00639
5994.32411	0.00641
5992.39544	0.00644
5990.46676	0.00646
5988.53809	0.00648
5986.60941	0.00649
5984.68074	0.00652
5982.75206	0.00653
5980.82338	0.00653
5978.89471	0.00653
5976.96603	0.00655
5975.03736	0.00657
5973.10868	0.00657
5971.18001	0.00658
5969.25133	0.00660
5967.32265	0.00661
5965.39398	0.00662
5963.46530	0.00664
5961.53663	0.00666
5959.60795	0.00668
5957.67928	0.00669
5955.75060	0.00668
5953.82192	0.00669
5951.89325	0.00671
5949.96457	0.00673
5948.03590	0.00676
5946.10722	0.00678
5944.17855	0.00680
5942.24987	0.00682
5940.32119	0.00683
5938.39252	0.00684
5936.46384	0.00686
5934.53517	0.00687
5932.60649	0.00687
5930.67782	0.00689
5928.74914	0.00690
5926.82046	0.00690
5924.89179	0.00692
5922.96311	0.00694
5921.03444	0.00696
5919.10576	0.00697
5917.17709	0.00696
5915.24841	0.00697
5913.31973	0.00699
5911.39106	0.00702
5909.46238	0.00706
5907.53371	0.00708
5905.60503	0.00709
5903.67636	0.00709
5901.74768	0.00708
5899.81900	0.00707
5897.89033	0.00709
5895.96165	0.00712
5894.03298	0.00715
5892.10430	0.00716
5890.17563	0.00718
5888.24695	0.00719
5886.31827	0.00721
5884.38960	0.00723
5882.46092	0.00725
5880.53225	0.00726
5878.60357	0.00728
5876.67490	0.00730
5874.74622	0.00731
5872.81755	0.00731
5870.88887	0.00731
5868.96019	0.00732
5867.03152	0.00733
5865.10284	0.00734
5863.17417	0.00737
5861.24549	0.00741
5859.31682	0.00742
5857.38814	0.00743
5855.45946	0.00743
5853.53079	0.00745
5851.60211	0.00747
5849.67344	0.00751
5847.74476	0.00753
5845.81609	0.00754
5843.88741	0.00756
5841.95873	0.00756
5840.03006	0.00757
5838.10138	0.00758
5836.17271	0.00759
5834.24403	0.00760
5832.31536	0.00762
5830.38668	0.00764
5828.45800	0.00766
5826.52933	0.00768
5824.60065	0.00770
5822.67198	0.00772
5820.74330	0.00773
5818.81463	0.00773
5816.88595	0.00773
5814.95727	0.00773
5813.02860	0.00773
5811.09992	0.00777
5809.17125	0.00780
5807.24257	0.00782
5805.31390	0.00786
5803.38522	0.00790
5801.45654	0.00792
5799.52787	0.00791
5797.59919	0.00791
5795.67052	0.00793
5793.74184	0.00795
5791.81317	0.00795
5789.88449	0.00796
5787.95581	0.00799
5786.02714	0.00803
5784.09846	0.00805
5782.16979	0.00804
5780.24111	0.00805
5778.31244	0.00806
5776.38376	0.00807
5774.45508	0.00809
5772.52641	0.00810
5770.59773	0.00812
5768.66906	0.00814
5766.74038	0.00817
5764.81171	0.00820
5762.88303	0.00822
5760.95435	0.00825
5759.02568	0.00826
5757.09700	0.00827
5755.16833	0.00828
5753.23965	0.00828
5751.31098	0.00829
5749.38230	0.00831
5747.45362	0.00832
5745.52495	0.00833
5743.59627	0.00836
5741.66760	0.00839
5739.73892	0.00840
5737.81025	0.00842
5735.88157	0.00845
5733.95289	0.00848
5732.02422	0.00849
5730.09554	0.00850
5728.16687	0.00852
5726.23819	0.00855
5724.30952	0.00857
5722.38084	0.00859
5720.45216	0.00860
5718.52349	0.00861
5716.59481	0.00863
5714.66614	0.00863
5712.73746	0.00865
5710.80879	0.00868
5708.88011	0.00870
5706.95143	0.00870
5705.02276	0.00870
5703.09408	0.00872
5701.16541	0.00876
5699.23673	0.00878
5697.30806	0.00881
5695.37938	0.00884
5693.45070	0.00884
5691.52203	0.00885
5689.59335	0.00887
5687.66468	0.00888
5685.73600	0.00888
5683.80733	0.00889
5681.87865	0.00891
5679.94997	0.00894
5678.02130	0.00896
5676.09262	0.00898
5674.16395	0.00901
5672.23527	0.00904
5670.30660	0.00907
5668.37792	0.00907
5666.44924	0.00907
5664.52057	0.00908
5662.59189	0.00909
5660.66322	0.00910
5658.73454	0.00912
5656.80587	0.00914
5654.87719	0.00915
5652.94851	0.00917
5651.01984	0.00921
5649.09116	0.00924
5647.16249	0.00925
5645.23381	0.00924
5643.30514	0.00925
5641.37646	0.00929
5639.44778	0.00933
5637.51911	0.00935
5635.59043	0.00936
5633.66176	0.00936
5631.73308	0.00936
5629.80441	0.00937
5627.87573	0.00940
5625.94705	0.00942
5624.01838	0.00945
5622.08970	0.00948
5620.16103	0.00950
5618.23235	0.00952
5616.30368	0.00955
5614.37500	0.00957
5612.44632	0.00957
5610.51765	0.00958
5608.58897	0.00961
5606.66030	0.00965
5604.73162	0.00967
5602.80295	0.00967
5600.87427	0.00967
5598.94559	0.00967
5597.01692	0.00969
5595.08824	0.00973
5593.15957	0.00978
5591.23089	0.00981
5589.30222	0.00982
5587.37354	0.00982
5585.44486	0.00982
5583.51619	0.00983
5581.58751	0.00984
5579.65884	0.00986
5577.73016	0.00989
5575.80149	0.00993
5573.87281	0.00995
5571.94413	0.00997
5570.01546	0.00999
5568.08678	0.01002
5566.15811	0.01004
5564.22943	0.01005
5562.30076	0.01008
5560.37208	0.01011
5558.44340	0.01012
5556.51473	0.01013
5554.58605	0.01015
5552.65738	0.01017
5550.72870	0.01019
5548.80003	0.01021
5546.87135	0.01024
5544.94267	0.01026
5543.01400	0.01028
5541.08532	0.01029
5539.15665	0.01030
5537.22797	0.01032
5535.29930	0.01034
5533.37062	0.01036
5531.44194	0.01036
5529.51327	0.01038
5527.58459	0.01042
5525.65592	0.01045
5523.72724	0.01047
5521.79857	0.01049
5519.86989	0.01050
5517.94121	0.01051
5516.01254	0.01052
5514.08386	0.01054
5512.15519	0.01058
5510.22651	0.01062
5508.29784	0.01065
5506.36916	0.01066
5504.44048	0.01066
5502.51181	0.01066
5500.58313	0.01068
5498.65446	0.01072
5496.72578	0.01074
5494.79711	0.01075
5492.86843	0.01077
5490.93975	0.01080
5489.01108	0.01082
5487.08240	0.01082
5485.15373	0.01085
5483.22505	0.01088
5481.29638	0.01091
5479.36770	0.01092
5477.43902	0.01094
5475.51035	0.01097
5473.58167	0.01098
5471.65300	0.01099
5469.72432	0.01101
5467.79565	0.01103
5465.86697	0.01106
5463.93829	0.01108
5462.00962	0.01109
5460.08094	0.01111
5458.15227	0.01115
5456.22359	0.01118
5454.29492	0.01121
5452.36624	0.01122
5450.43756	0.01123
5448.50889	0.01124
5446.58021	0.01126
5444.65154	0.01129
5442.72286	0.01130
5440.79419	0.01131
5438.86551	0.01132
5436.93683	0.01135
5435.00816	0.01138
5433.07948	0.01141
5431.15081	0.01144
5429.22213	0.01146
5427.29346	0.01147
5425.36478	0.01147
5423.43610	0.01147
5421.50743	0.01150
5419.57875	0.01154
5417.65008	0.01157
5415.72140	0.01159
5413.79273	0.01161
5411.86405	0.01164
5409.93537	0.01165
5408.00670	0.01168
5406.07802	0.01171
5404.14935	0.01173
5402.22067	0.01174
5400.29200	0.01176
5398.36332	0.01180
5396.43464	0.01182
5394.50597	0.01183
5392.57729	0.01186
5390.64862	0.01191
5388.71994	0.01194
5386.79127	0.01195
5384.86259	0.01195
5382.93391	0.01197
5381.00524	0.01199
5379.07656	0.01201
5377.14789	0.01202
5375.21921	0.01204
5373.29054	0.01206
5371.36186	0.01208
5369.43318	0.01211
5367.50451	0.01214
5365.57583	0.01217
5363.64716	0.01218
5361.71848	0.01218
5359.78981	0.01219
5357.86113	0.01221
5355.93245	0.01223
5354.00378	0.01228
5352.07510	0.01233
5350.14643	0.01236
5348.21775	0.01238
5346.28908	0.01239
5344.36040	0.01240
5342.43172	0.01242
5340.50305	0.01243
5338.57437	0.01245
5336.64570	0.01246
5334.71702	0.01248
5332.78835	0.01252
5330.85967	0.01255
5328.93099	0.01258
5327.00232	0.01263
5325.07364	0.01268
5323.14497	0.01271
5321.21629	0.01272
5319.28762	0.01271
5317.35894	0.01272
5315.43026	0.01274
5313.50159	0.01278
5311.57291	0.01282
5309.64424	0.01286
5307.71556	0.01289
5305.78689	0.01289
5303.85821	0.01287
5301.92953	0.01288
5300.00086	0.01292
5298.07218	0.01296
5296.14351	0.01298
5294.21483	0.01298
5292.28616	0.01297
5290.35748	0.01299
5288.42880	0.01303
5286.50013	0.01307
5284.57145	0.01310
5282.64278	0.01313
5280.71410	0.01315
5278.78543	0.01318
5276.85675	0.01320
5274.92807	0.01324
5272.99940	0.01327
5271.07072	0.01330
5269.14205	0.01332
5267.21337	0.01332
5265.28470	0.01332
5263.35602	0.01333
5261.42734	0.01337
5259.49867	0.01340
5257.56999	0.01342
5255.64132	0.01343
5253.71264	0.01344
5251.78397	0.01346
5249.85529	0.01349
5247.92661	0.01353
5245.99794	0.01356
5244.06926	0.01358
5242.14059	0.01361
5240.21191	0.01364
5238.28324	0.01364
5236.35456	0.01365
5234.42588	0.01369
5232.49721	0.01373
5230.56853	0.01376
5228.63986	0.01378
5226.71118	0.01380
5224.78251	0.01380
5222.85383	0.01381
5220.92515	0.01385
5218.99648	0.01389
5217.06780	0.01391
5215.13913	0.01392
5213.21045	0.01395
5211.28178	0.01400
5209.35310	0.01403
5207.42442	0.01403
5205.49575	0.01404
5203.56707	0.01407
5201.63840	0.01411
5199.70972	0.01414
5197.78105	0.01416
5195.85237	0.01419
5193.92369	0.01422
5191.99502	0.01424
5190.06634	0.01427
5188.13767	0.01431
5186.20899	0.01433
5184.28032	0.01434
5182.35164	0.01434
5180.42296	0.01435
5178.49429	0.01438
5176.56561	0.01441
5174.63694	0.01444
5172.70826	0.01446
5170.77959	0.01448
5168.85091	0.01450
5166.92223	0.01453
5164.99356	0.01456
5163.06488	0.01459
5161.13621	0.01463
5159.20753	0.01466
5157.27886	0.01468
5155.35018	0.01468
5153.42150	0.01469
5151.49283	0.01472
5149.56415	0.01475
5147.63548	0.01478
5145.70680	0.01479
5143.77813	0.01480
5141.84945	0.01482
5139.92077	0.01488
5137.99210	0.01495
5136.06342	0.01500
5134.13475	0.01501
5132.20607	0.01499
5130.27740	0.01499
5128.34872	0.01501
5126.42004	0.01503
5124.49137	0.01505
5122.56269	0.01509
5120.63402	0.01512
5118.70534	0.01515
5116.77667	0.01518
5114.84799	0.01522
5112.91931	0.01524
5110.99064	0.01526
5109.06196	0.01528
5107.13329	0.01529
5105.20461	0.01533
5103.27594	0.01538
5101.34726	0.01542
5099.41858	0.01544
5097.48991	0.01546
5095.56123	0.01548
5093.63256	0.01550
5091.70388	0.01551
5089.77521	0.01554
5087.84653	0.01558
5085.91785	0.01562
5083.98918	0.01564
5082.06050	0.01564
5080.13183	0.01566
5078.20315	0.01569
5076.27448	0.01571
5074.34580	0.01574
5072.41712	0.01577
5070.48845	0.01579
5068.55977	0.01582
5066.63110	0.01587
5064.70242	0.01590
5062.77375	0.01591
5060.84507	0.01592
5058.91639	0.01593
5056.98772	0.01595
5055.05904	0.01596
5053.13037	0.01599
5051.20169	0.01602
5049.27302	0.01606
5047.34434	0.01610
5045.41566	0.01613
5043.48699	0.01615
5041.55831	0.01616
5039.62964	0.01618
5037.70096	0.01621
5035.77229	0.01627
5033.84361	0.01631
5031.91493	0.01633
5029.98626	0.01635
5028.05758	0.01640
5026.12891	0.01644
5024.20023	0.01645
5022.27156	0.01645
5020.34288	0.01648
5018.41420	0.01651
5016.48553	0.01653
5014.55685	0.01655
5012.62818	0.01657
5010.69950	0.01661
5008.77083	0.01667
5006.84215	0.01672
5004.91347	0.01673
5002.98480	0.01673
5001.05612	0.01673
4999.12745	0.01674
4997.19877	0.01677
4995.27010	0.01681
4993.34142	0.01684
4991.41274	0.01687
4989.48407	0.01689
4987.55539	0.01692
4985.62672	0.01697
4983.69804	0.01700
4981.76937	0.01702
4979.84069	0.01704
4977.91201	0.01708
4975.98334	0.01711
4974.05466	0.01714
4972.12599	0.01716
4970.19731	0.01719
4968.26864	0.01722
4966.33996	0.01725
4964.41128	0.01726
4962.48261	0.01727
4960.55393	0.01730
4958.62526	0.01734
4956.69658	0.01736
4954.76791	0.01739
4952.83923	0.01743
4950.91055	0.01747
4948.98188	0.01752
4947.05320	0.01756
4945.12453	0.01760
4943.19585	0.01763
4941.26718	0.01764
4939.33850	0.01765
4937.40982	0.01767
4935.48115	0.01769
4933.55247	0.01771
4931.62380	0.01775
4929.69512	0.01780
4927.76645	0.01782
4925.83777	0.01783
4923.90909	0.01786
4921.98042	0.01791
4920.05174	0.01797
4918.12307	0.01798
4916.19439	0.01797
4914.26572	0.01798
4912.33704	0.01802
4910.40836	0.01805
4908.47969	0.01807
4906.55101	0.01810
4904.62234	0.01814
4902.69366	0.01817
4900.76499	0.01820
4898.83631	0.01823
4896.90763	0.01825
4894.97896	0.01826
4893.05028	0.01828
4891.12161	0.01834
4889.19293	0.01838
4887.26426	0.01839
4885.33558	0.01842
4883.40690	0.01847
4881.47823	0.01851
4879.54955	0.01853
4877.62088	0.01854
4875.69220	0.01856
4873.76353	0.01858
4871.83485	0.01862
4869.90617	0.01865
4867.97750	0.01868
4866.04882	0.01873
4864.12015	0.01877
4862.19147	0.01879
4860.26280	0.01881
4858.33412	0.01883
4856.40544	0.01885
4854.47677	0.01888
4852.54809	0.01892
4850.61942	0.01896
4848.69074	0.01900
4846.76207	0.01904
4844.83339	0.01908
4842.90471	0.01911
4840.97604	0.01913
4839.04736	0.01914
4837.11869	0.01915
4835.19001	0.01917
4833.26134	0.01920
4831.33266	0.01922
4829.40398	0.01925
4827.47531	0.01928
4825.54663	0.01931
4823.61796	0.01936
4821.68928	0.01941
4819.76061	0.01945
4817.83193	0.01949
4815.90325	0.01951
4813.97458	0.01952
4812.04590	0.01954
4810.11723	0.01958
4808.18855	0.01965
4806.25988	0.01969
4804.33120	0.01970
4802.40252	0.01970
4800.47385	0.01972
4798.54517	0.01976
4796.61650	0.01979
4794.68782	0.01982
4792.75915	0.01984
4790.83047	0.01987
4788.90179	0.01991
4786.97312	0.01994
4785.04444	0.01997
4783.11577	0.02000
4781.18709	0.02004
4779.25842	0.02009
4777.32974	0.02014
4775.40106	0.02019
4773.47239	0.02023
4771.54371	0.02025
4769.61504	0.02026
4767.68636	0.02028
4765.75769	0.02032
4763.82901	0.02035
4761.90033	0.02038
4759.97166	0.02041
4758.04298	0.02044
4756.11431	0.02049
4754.18563	0.02053
4752.25696	0.02055
4750.32828	0.02056
4748.39960	0.02059
4746.47093	0.02063
4744.54225	0.02067
4742.61358	0.02069
4740.68490	0.02073
4738.75623	0.02078
4736.82755	0.02082
4734.89887	0.02085
4732.97020	0.02088
4731.04152	0.02090
4729.11285	0.02093
4727.18417	0.02097
4725.25550	0.02102
4723.32682	0.02105
4721.39814	0.02108
4719.46947	0.02111
4717.54079	0.02115
4715.61212	0.02116
4713.68344	0.02117
4711.75477	0.02120
4709.82609	0.02125
4707.89741	0.02131
4705.96874	0.02134
4704.04006	0.02137
4702.11139	0.02140
4700.18271	0.02143
4698.25404	0.02147
4696.32536	0.02150
4694.39668	0.02154
4692.46801	0.02159
4690.53933	0.02163
4688.61066	0.02165
4686.68198	0.02168
4684.75331	0.02171
4682.82463	0.02175
4680.89595	0.02180
4678.96728	0.02185
4677.03860	0.02189
4675.10993	0.02191
4673.18125	0.02193
4671.25258	0.02195
4669.32390	0.02199
4667.39522	0.02204
4665.46655	0.02207
4663.53787	0.02209
4661.60920	0.02211
4659.68052	0.02215
4657.75185	0.02218
4655.82317	0.02220
4653.89449	0.02223
4651.96582	0.02229
4650.03714	0.02236
4648.10847	0.02242
4646.17979	0.02245
4644.25112	0.02247
4642.32244	0.02249
4640.39376	0.02252
4638.46509	0.02256
4636.53641	0.02260
4634.60774	0.02265
4632.67906	0.02269
4630.75039	0.02274
4628.82171	0.02278
4626.89303	0.02282
4624.96436	0.02286
4623.03568	0.02289
4621.10701	0.02291
4619.17833	0.02294
4617.24966	0.02299
4615.32098	0.02303
4613.39230	0.02306
4611.46363	0.02310
4609.53495	0.02313
4607.60628	0.02315
4605.67760	0.02318
4603.74893	0.02323
4601.82025	0.02328
4599.89157	0.02333
4597.96290	0.02337
4596.03422	0.02342
4594.10555	0.02349
4592.17687	0.02352
4590.24820	0.02353
4588.31952	0.02355
4586.39084	0.02358
4584.46217	0.02361
4582.53349	0.02366
4580.60482	0.02372
4578.67614	0.02376
4576.74747	0.02378
4574.81879	0.02383
4572.89011	0.02387
4570.96144	0.02391
4569.03276	0.02393
4567.10409	0.02395
4565.17541	0.02400
4563.24674	0.02407
4561.31806	0.02413
4559.38938	0.02416
4557.46071	0.02419
4555.53203	0.02423
4553.60336	0.02428
4551.67468	0.02432
4549.74601	0.02436
4547.81733	0.02439
4545.88865	0.02441
4543.95998	0.02444
4542.03130	0.02449
4540.10263	0.02454
4538.17395	0.02457
4536.24528	0.02461
4534.31660	0.02467
4532.38792	0.02473
4530.45925	0.02478
4528.53057	0.02482
4526.60190	0.02484
4524.67322	0.02487
4522.74455	0.02491
4520.81587	0.02494
4518.88719	0.02496
4516.95852	0.02500
4515.02984	0.02506
4513.10117	0.02514
4511.17249	0.02520
4509.24382	0.02525
4507.31514	0.02528
4505.38646	0.02531
4503.45779	0.02534
4501.52911	0.02538
4499.60044	0.02543
4497.67176	0.02547
4495.74309	0.02550
4493.81441	0.02554
4491.88573	0.02559
4489.95706	0.02563
4488.02838	0.02568
4486.09971	0.02572
4484.17103	0.02577
4482.24236	0.02582
4480.31368	0.02587
4478.38500	0.02591
4476.45633	0.02593
4474.52765	0.02597
4472.59898	0.02602
4470.67030	0.02608
4468.74163	0.02613
4466.81295	0.02617
4464.88427	0.02622
4462.95560	0.02627
4461.02692	0.02632
4459.09825	0.02635
4457.16957	0.02638
4455.24090	0.02643
4453.31222	0.02648
4451.38354	0.02653
4449.45487	0.02655
4447.52619	0.02658
4445.59752	0.02663
4443.66884	0.02671
4441.74017	0.02680
4439.81149	0.02685
4437.88281	0.02685
4435.95414	0.02686
4434.02546	0.02692
4432.09679	0.02702
4430.16811	0.02709
4428.23944	0.02713
4426.31076	0.02715
4424.38208	0.02718
4422.45341	0.02722
4420.52473	0.02727
4418.59606	0.02731
4416.66738	0.02734
4414.73871	0.02738
4412.81003	0.02745
4410.88135	0.02751
4408.95268	0.02757
4407.02400	0.02763
4405.09533	0.02768
4403.16665	0.02773
4401.23798	0.02778
4399.30930	0.02783
4397.38062	0.02787
4395.45195	0.02791
4393.52327	0.02795
4391.59460	0.02798
4389.66592	0.02803
4387.73725	0.02808
4385.80857	0.02813
4383.87989	0.02819
4381.95122	0.02825
4380.02254	0.02830
4378.09387	0.02835
4376.16519	0.02840
4374.23652	0.02846
4372.30784	0.02852
4370.37916	0.02856
4368.45049	0.02859
4366.52181	0.02864
4364.59314	0.02871
4362.66446	0.02877
4360.73579	0.02881
4358.80711	0.02886
4356.87843	0.02892
4354.94976	0.02894
4353.02108	0.02898
4351.09241	0.02905
4349.16373	0.02912
4347.23506	0.02917
4345.30638	0.02922
4343.37770	0.02928
4341.44903	0.02933
4339.52035	0.02939
4337.59168	0.02944
4335.66300	0.02948
4333.73433	0.02954
4331.80565	0.02962
4329.87697	0.02968
4327.94830	0.02971
4326.01962	0.02974
4324.09095	0.02979
4322.16227	0.02985
4320.23360	0.02992
4318.30492	0.02997
4316.37624	0.03000
4314.44757	0.03003
4312.51889	0.03008
4310.59022	0.03016
4308.66154	0.03023
4306.73287	0.03030
4304.80419	0.03036
4302.87551	0.03042
4300.94684	0.03048
4299.01816	0.03053
4297.08949	0.03059
4295.16081	0.03064
4293.23214	0.03070
4291.30346	0.03075
4289.37478	0.03080
4287.44611	0.03086
4285.51743	0.03091
4283.58876	0.03097
4281.66008	0.03105
4279.73141	0.03112
4277.80273	0.03117
4275.87405	0.03122
4273.94538	0.03127
4272.01670	0.03132
4270.08803	0.03137
4268.15935	0.03144
4266.23068	0.03150
4264.30200	0.03155
4262.37332	0.03160
4260.44465	0.03166
4258.51597	0.03171
4256.58730	0.03178
4254.65862	0.03184
4252.72995	0.03189
4250.80127	0.03194
4248.87259	0.03199
4246.94392	0.03204
4245.01524	0.03209
4243.08657	0.03215
4241.15789	0.03223
4239.22922	0.03232
4237.30054	0.03240
4235.37186	0.03246
4233.44319	0.03251
4231.51451	0.03257
4229.58584	0.03263
4227.65716	0.03270
4225.72849	0.03276
4223.79981	0.03279
4221.87113	0.03282
4219.94246	0.03288
4218.01378	0.03296
4216.08511	0.03304
4214.15643	0.03312
4212.22776	0.03319
4210.29908	0.03323
4208.37040	0.03328
4206.44173	0.03335
4204.51305	0.03342
4202.58438	0.03347
4200.65570	0.03354
4198.72703	0.03362
4196.79835	0.03367
4194.86968	0.03371
4192.94100	0.03376
4191.01232	0.03382
4189.08365	0.03388
4187.15497	0.03394
4185.22630	0.03400
4183.29762	0.03407
4181.36895	0.03414
4179.44027	0.03420
4177.51159	0.03426
4175.58292	0.03433
4173.65424	0.03439
4171.72557	0.03444
4169.79689	0.03449
4167.86822	0.03455
4165.93954	0.03463
4164.01086	0.03473
4162.08219	0.03485
4160.15351	0.03494
4158.22484	0.03499
4156.29616	0.03503
4154.36749	0.03509
4152.43881	0.03515
4150.51013	0.03521
4148.58146	0.03527
4146.65278	0.03534
4144.72411	0.03541
4142.79543	0.03546
4140.86676	0.03552
4138.93808	0.03561
4137.00940	0.03569
4135.08073	0.03576
4133.15205	0.03580
4131.22338	0.03584
4129.29470	0.03590
4127.36603	0.03597
4125.43735	0.03605
4123.50867	0.03614
4121.58000	0.03620
4119.65132	0.03624
4117.72265	0.03632
4115.79397	0.03643
4113.86530	0.03653
4111.93662	0.03659
4110.00794	0.03664
4108.07927	0.03670
4106.15059	0.03676
4104.22192	0.03682
4102.29324	0.03688
4100.36457	0.03695
4098.43589	0.03703
4096.50721	0.03712
4094.57854	0.03719
4092.64986	0.03725
4090.72119	0.03731
4088.79251	0.03738
4086.86384	0.03745
4084.93516	0.03752
4083.00648	0.03761
4081.07781	0.03770
4079.14913	0.03777
4077.22046	0.03782
4075.29178	0.03788
4073.36311	0.03794
4071.43443	0.03801
4069.50575	0.03809
4067.57708	0.03817
4065.64840	0.03826
4063.71973	0.03834
4061.79105	0.03841
4059.86238	0.03847
4057.93370	0.03854
4056.00502	0.03863
4054.07635	0.03869
4052.14767	0.03875
4050.21900	0.03883
4048.29032	0.03892
4046.36165	0.03900
4044.43297	0.03907
4042.50429	0.03914
4040.57562	0.03921
4038.64694	0.03928
4036.71827	0.03936
4034.78959	0.03944
4032.86092	0.03952
4030.93224	0.03958
4029.00356	0.03964
4027.07489	0.03971
4025.14621	0.03979
4023.21754	0.03987
4021.28886	0.03994
4019.36019	0.03999
4017.43151	0.04006
4015.50283	0.04016
4013.57416	0.04027
4011.64548	0.04036
4009.71681	0.04045
4007.78813	0.04052
4005.85946	0.04060
4003.93078	0.04067
4002.00210	0.04074
4000.07343	0.04080
3998.14475	0.04087
3996.21608	0.04094
3994.28740	0.04102
3992.35873	0.04111
3990.43005	0.04119
3988.50137	0.04127
3986.57270	0.04135
3984.64402	0.04143
3982.71535	0.04150
3980.78667	0.04159
3978.85800	0.04170
3976.92932	0.04179
3975.00064	0.04186
3973.07197	0.04192
3971.14329	0.04198
3969.21462	0.04206
3967.28594	0.04215
3965.35727	0.04224
3963.42859	0.04230
3961.49991	0.04237
3959.57124	0.04245
3957.64256	0.04254
3955.71389	0.04261
3953.78521	0.04268
3951.85654	0.04276
3949.92786	0.04283
3947.99918	0.04291
3946.07051	0.04300
3944.14183	0.04308
3942.21316	0.04315
3940.28448	0.04325
3938.35581	0.04335
3936.42713	0.04343
3934.49845	0.04348
3932.56978	0.04354
3930.64110	0.04361
3928.71243	0.04369
3926.78375	0.04375
3924.85508	0.04384
3922.92640	0.04395
3920.99772	0.04402
3919.06905	0.04408
3917.14037	0.04417
3915.21170	0.04430
3913.28302	0.04442
3911.35435	0.04452
3909.42567	0.04457
3907.49699	0.04459
3905.56832	0.04458
3903.63964	0.04460
3901.71097	0.04472
3899.78229	0.04489
3897.85362	0.04505
3895.92494	0.04519
3893.99626	0.04526
3892.06759	0.04530
3890.13891	0.04536
3888.21024	0.04538
3886.28156	0.04537
3884.35289	0.04546
3882.42421	0.04564
3880.49553	0.04580
3878.56686	0.04591
3876.63818	0.04595
3874.70951	0.04595
3872.78083	0.04598
3870.85216	0.04603
3868.92348	0.04615
3866.99480	0.04630
3865.06613	0.04640
3863.13745	0.04649
3861.20878	0.04661
3859.28010	0.04671
3857.35143	0.04674
3855.42275	0.04664
3853.49407	0.04657
3851.56540	0.04676
3849.63672	0.04707
3847.70805	0.04727
3845.77937	0.04734
3843.85070	0.04739
3841.92202	0.04746
3839.99334	0.04752
3838.06467	0.04759
3836.13599	0.04772
3834.20732	0.04787
3832.27864	0.04800
3830.34997	0.04812
3828.42129	0.04820
3826.49261	0.04826
3824.56394	0.04829
3822.63526	0.04828
3820.70659	0.04834
3818.77791	0.04849
3816.84924	0.04863
3814.92056	0.04875
3812.99188	0.04891
3811.06321	0.04902
3809.13453	0.04904
3807.20586	0.04905
3805.27718	0.04915
3803.34851	0.04924
3801.41983	0.04932
3799.49115	0.04947
3797.56248	0.04962
3795.63380	0.04974
3793.70513	0.04988
3791.77645	0.05000
3789.84778	0.05011
3787.91910	0.05020
3785.99042	0.05028
3784.06175	0.05035
3782.13307	0.05042
3780.20440	0.05051
3778.27572	0.05063
3776.34705	0.05075
3774.41837	0.05083
3772.48969	0.05088
3770.56102	0.05092
3768.63234	0.05102
3766.70367	0.05114
3764.77499	0.05125
3762.84632	0.05135
3760.91764	0.05142
3758.98896	0.05149
3757.06029	0.05156
3755.13161	0.05160
3753.20294	0.05158
3751.27426	0.05154
3749.34559	0.05161
3747.41691	0.05173
3745.48823	0.05180
3743.55956	0.05195
3741.63088	0.05222
3739.70221	0.05235
3737.77353	0.05228
3735.84486	0.05225
3733.91618	0.05239
3731.98750	0.05262
3730.05883	0.05283
3728.13015	0.05295
3726.20148	0.05303
3724.27280	0.05312
3722.34413	0.05325
3720.41545	0.05340
3718.48677	0.05353
3716.55810	0.05362
3714.62942	0.05363
3712.70075	0.05360
3710.77207	0.05365
3708.84340	0.05380
3706.91472	0.05398
3704.98604	0.05412
3703.05737	0.05420
3701.12869	0.05432
3699.20002	0.05447
3697.27134	0.05458
3695.34267	0.05464
3693.41399	0.05467
3691.48531	0.05467
3689.55664	0.05472
3687.62796	0.05487
3685.69929	0.05506
3683.77061	0.05519
3681.84194	0.05526
3679.91326	0.05529
3677.98458	0.05524
3676.05591	0.05518
3674.12723	0.05526
3672.19856	0.05539
3670.26988	0.05553
3668.34121	0.05578
3666.41253	0.05605
3664.48385	0.05620
3662.55518	0.05628
3660.62650	0.05632
3658.69783	0.05631
3656.76915	0.05631
3654.84048	0.05641
3652.91180	0.05645
3650.98312	0.05633
3649.05445	0.05624
3647.12577	0.05637
3645.19710	0.05664
3643.26842	0.05689
3641.33975	0.05708
3639.41107	0.05722
3637.48239	0.05731
3635.55372	0.05734
3633.62504	0.05734
3631.69637	0.05728
3629.76769	0.05724
3627.83902	0.05738
3625.91034	0.05766
3623.98166	0.05784
3622.05299	0.05786
3620.12431	0.05783
3618.19564	0.05787
3616.26696	0.05796
3614.33829	0.05805
3612.40961	0.05812
3610.48093	0.05816
3608.55226	0.05824
3606.62358	0.05839
3604.69491	0.05854
3602.76623	0.05863
3600.83756	0.05869
3598.90888	0.05877
3596.98020	0.05883
3595.05153	0.05888
3593.12285	0.05894
3591.19418	0.05898
3589.26550	0.05899
3587.33683	0.05908
3585.40815	0.05927
3583.47947	0.05942
3581.55080	0.05952
3579.62212	0.05960
3577.69345	0.05970
3575.76477	0.05980
3573.83610	0.05987
3571.90742	0.05990
3569.97874	0.05988
3568.05007	0.05984
3566.12139	0.05990
3564.19272	0.06007
3562.26404	0.06025
3560.33537	0.06038
3558.40669	0.06047
3556.47801	0.06054
3554.54934	0.06061
3552.62066	0.06067
3550.69199	0.06074
3548.76331	0.06077
3546.83464	0.06080
3544.90596	0.06088
3542.97728	0.06097
3541.04861	0.06107
3539.11993	0.06114
3537.19126	0.06120
3535.26258	0.06126
3533.33391	0.06133
3531.40523	0.06136
3529.47655	0.06137
3527.54788	0.06138
3525.61920	0.06142
3523.69053	0.06149
3521.76185	0.06158
3519.83318	0.06164
3517.90450	0.06167
3515.97582	0.06169
3514.04715	0.06171
3512.11847	0.06173
3510.18980	0.06177
3508.26112	0.06182
3506.33245	0.06188
3504.40377	0.06191
3502.47509	0.06194
3500.54642	0.06197
3498.61774	0.06199
3496.68907	0.06201
3494.76039	0.06205
3492.83172	0.06208
3490.90304	0.06209
3488.97436	0.06214
3487.04569	0.06221
3485.11701	0.06228
3483.18834	0.06232
3481.25966	0.06237
3479.33099	0.06241
3477.40231	0.06246
3475.47363	0.06254
3473.54496	0.06262
3471.61628	0.06270
3469.68761	0.06279
3467.75893	0.06290
3465.83026	0.06301
3463.90158	0.06312
3461.97290	0.06323
3460.04423	0.06336
3458.11555	0.06348
3456.18688	0.06358
3454.25820	0.06366
3452.32953	0.06374
3450.40085	0.06384
3448.47217	0.06395
3446.54350	0.06405
3444.61482	0.06414
3442.68615	0.06424
3440.75747	0.06435
3438.82880	0.06449
3436.90012	0.06464
3434.97144	0.06482
3433.04277	0.06502
3431.11409	0.06525
3429.18542	0.06547
3427.25674	0.06568
3425.32807	0.06589
3423.39939	0.06609
3421.47071	0.06626
3419.54204	0.06642
3417.61336	0.06660
3415.68469	0.06680
3413.75601	0.06698
3411.82734	0.06711
3409.89866	0.06725
3407.96998	0.06741
3406.04131	0.06754
3404.11263	0.06764
3402.18396	0.06773
3400.25528	0.06786
3398.32661	0.06802
3396.39793	0.06819
3394.46925	0.06835
3392.54058	0.06851
3390.61190	0.06865
3388.68323	0.06879
3386.75455	0.06891
3384.82588	0.06903
3382.89720	0.06915
3380.96852	0.06929
3379.03985	0.06943
3377.11117	0.06956
3375.18250	0.06970
3373.25382	0.06984
3371.32515	0.06997
3369.39647	0.07008
3367.46779	0.07021
3365.53912	0.07034
3363.61044	0.07047
3361.68177	0.07057
3359.75309	0.07066
3357.82442	0.07079
3355.89574	0.07096
3353.96706	0.07111
3352.03839	0.07123
3350.10971	0.07133
3348.18104	0.07144
3346.25236	0.07155
3344.32369	0.07167
3342.39501	0.07180
3340.46633	0.07193
3338.53766	0.07206
3336.60898	0.07220
3334.68031	0.07235
3332.75163	0.07249
3330.82296	0.07259
3328.89428	0.07269
3326.96560	0.07282
3325.03693	0.07296
3323.10825	0.07309
3321.17958	0.07322
3319.25090	0.07335
3317.32223	0.07349
3315.39355	0.07364
3313.46487	0.07376
3311.53620	0.07388
3309.60752	0.07402
3307.67885	0.07418
3305.75017	0.07431
3303.82150	0.07443
3301.89282	0.07454
3299.96414	0.07468
3298.03547	0.07482
3296.10679	0.07495
3294.17812	0.07508
3292.24944	0.07522
3290.32077	0.07538
3288.39209	0.07555
3286.46341	0.07569
3284.53474	0.07579
3282.60606	0.07590
3280.67739	0.07604
3278.74871	0.07621
3276.82004	0.07636
3274.89136	0.07645
3272.96268	0.07655
3271.03401	0.07668
3269.10533	0.07682
3267.17666	0.07696
3265.24798	0.07711
3263.31931	0.07725
3261.39063	0.07740
3259.46195	0.07757
3257.53328	0.07773
3255.60460	0.07787
3253.67593	0.07799
3251.74725	0.07810
3249.81858	0.07823
3247.88990	0.07838
3245.96122	0.07853
3244.03255	0.07866
3242.10387	0.07880
3240.17520	0.07894
3238.24652	0.07907
3236.31785	0.07920
3234.38917	0.07933
3232.46049	0.07947
3230.53182	0.07961
3228.60314	0.07975
3226.67447	0.07989
3224.74579	0.08004
3222.81712	0.08020
3220.88844	0.08034
3218.95976	0.08047
3217.03109	0.08057
3215.10241	0.08067
3213.17374	0.08081
3211.24506	0.08099
3209.31639	0.08115
3207.38771	0.08128
3205.45903	0.08139
3203.53036	0.08153
3201.60168	0.08168
3199.67301	0.08183
3197.74433	0.08197
3195.81566	0.08213
3193.88698	0.08231
3191.95830	0.08248
3190.02963	0.08265
3188.10095	0.08281
3186.17228	0.08297
3184.24360	0.08313
3182.31493	0.08327
3180.38625	0.08339
3178.45757	0.08351
3176.52890	0.08363
3174.60022	0.08379
3172.67155	0.08397
3170.74287	0.08413
3168.81420	0.08427
3166.88552	0.08442
3164.95684	0.08456
3163.02817	0.08469
3161.09949	0.08483
3159.17082	0.08496
3157.24214	0.08509
3155.31347	0.08524
3153.38479	0.08538
3151.45611	0.08553
3149.52744	0.08569
3147.59876	0.08586
3145.67009	0.08601
3143.74141	0.08614
3141.81274	0.08627
3139.88406	0.08643
3137.95538	0.08659
3136.02671	0.08673
3134.09803	0.08686
3132.16936	0.08701
3130.24068	0.08715
3128.31201	0.08729
3126.38333	0.08742
3124.45465	0.08754
3122.52598	0.08768
3120.59730	0.08783
3118.66863	0.08798
3116.73995	0.08814
3114.81128	0.08827
3112.88260	0.08840
3110.95392	0.08856
3109.02525	0.08872
3107.09657	0.08885
3105.16790	0.08899
3103.23922	0.08915
3101.31055	0.08932
3099.38187	0.08946
3097.45319	0.08957
3095.52452	0.08968
3093.59584	0.08982
3091.66717	0.08996
3089.73849	0.09011
3087.80982	0.09026
3085.88114	0.09043
3083.95246	0.09059
3082.02379	0.09074
3080.09511	0.09088
3078.16644	0.09100
3076.23776	0.09111
3074.30909	0.09124
3072.38041	0.09138
3070.45173	0.09151
3068.52306	0.09165
3066.59438	0.09183
3064.66571	0.09201
3062.73703	0.09214
3060.80836	0.09229
3058.87968	0.09245
3056.95100	0.09261
3055.02233	0.09275
3053.09365	0.09289
3051.16498	0.09303
3049.23630	0.09318
3047.30763	0.09332
3045.37895	0.09346
3043.45027	0.09362
3041.52160	0.09379
3039.59292	0.09394
3037.66425	0.09405
3035.73557	0.09415
3033.80690	0.09428
3031.87822	0.09442
3029.94954	0.09455
3028.02087	0.09465
3026.09219	0.09476
3024.16352	0.09490
3022.23484	0.09507
3020.30617	0.09523
3018.37749	0.09537
3016.44881	0.09554
3014.52014	0.09572
3012.59146	0.09588
3010.66279	0.09601
3008.73411	0.09614
3006.80544	0.09630
3004.87676	0.09645
3002.94808	0.09657
3001.01941	0.09668
2999.09073	0.09679
2997.16206	0.09691
2995.23338	0.09706
2993.30471	0.09723
2991.37603	0.09740
2989.44735	0.09755
2987.51868	0.09765
2985.59000	0.09772
2983.66133	0.09780
2981.73265	0.09788
2979.80398	0.09797
2977.87530	0.09803
2975.94662	0.09807
2974.01795	0.09809
2972.08927	0.09811
2970.16060	0.09812
2968.23192	0.09809
2966.30325	0.09807
2964.37457	0.09812
2962.44589	0.09825
2960.51722	0.09840
2958.58854	0.09857
2956.65987	0.09874
2954.73119	0.09891
2952.80252	0.09908
2950.87384	0.09926
2948.94516	0.09941
2947.01649	0.09954
2945.08781	0.09963
2943.15914	0.09971
2941.23046	0.09973
2939.30179	0.09973
2937.37311	0.09973
2935.44443	0.09974
2933.51576	0.09975
2931.58708	0.09973
2929.65841	0.09972
2927.72973	0.09973
2925.80106	0.09972
2923.87238	0.09970
2921.94370	0.09974
2920.01503	0.09982
2918.08635	0.09994
2916.15768	0.10019
2914.22900	0.10064
2912.30033	0.10116
2910.37165	0.10160
2908.44297	0.10193
2906.51430	0.10222
2904.58562	0.10248
2902.65695	0.10271
2900.72827	0.10294
2898.79960	0.10318
2896.87092	0.10341
2894.94224	0.10359
2893.01357	0.10378
2891.08489	0.10399
2889.15622	0.10421
2887.22754	0.10441
2885.29887	0.10459
2883.37019	0.10474
2881.44151	0.10488
2879.51284	0.10502
2877.58416	0.10516
2875.65549	0.10530
2873.72681	0.10543
2871.79814	0.10553
2869.86946	0.10565
2867.94078	0.10578
2866.01211	0.10592
2864.08343	0.10604
2862.15476	0.10614
2860.22608	0.10618
2858.29741	0.10618
2856.36873	0.10619
2854.44005	0.10619
2852.51138	0.10619
2850.58270	0.10627
2848.65403	0.10651
2846.72535	0.10694
2844.79668	0.10745
2842.86800	0.10788
2840.93932	0.10824
2839.01065	0.10858
2837.08197	0.10887
2835.15330	0.10906
2833.22462	0.10921
2831.29595	0.10938
2829.36727	0.10953
2827.43859	0.10967
2825.50992	0.10983
2823.58124	0.11001
2821.65257	0.11019
2819.72389	0.11035
2817.79522	0.11049
2815.86654	0.11065
2813.93786	0.11083
2812.00919	0.11101
2810.08051	0.11115
2808.15184	0.11130
2806.22316	0.11147
2804.29449	0.11165
2802.36581	0.11184
2800.43713	0.11200
2798.50846	0.11213
2796.57978	0.11227
2794.65111	0.11244
2792.72243	0.11262
2790.79376	0.11280
2788.86508	0.11294
2786.93640	0.11306
2785.00773	0.11321
2783.07905	0.11340
2781.15038	0.11359
2779.22170	0.11377
2777.29303	0.11393
2775.36435	0.11407
2773.43567	0.11419
2771.50700	0.11435
2769.57832	0.11454
2767.64965	0.11472
2765.72097	0.11491
2763.79230	0.11508
2761.86362	0.11519
2759.93494	0.11528
2758.00627	0.11540
2756.07759	0.11554
2754.14892	0.11568
2752.22024	0.11585
2750.29157	0.11604
2748.36289	0.11622
2746.43421	0.11640
2744.50554	0.11653
2742.57686	0.11665
2740.64819	0.11678
2738.71951	0.11695
2736.79084	0.11713
2734.86216	0.11728
2732.93348	0.11742
2731.00481	0.11754
2729.07613	0.11769
2727.14746	0.11785
2725.21878	0.11799
2723.29011	0.11812
2721.36143	0.11827
2719.43275	0.11844
2717.50408	0.11861
2715.57540	0.11875
2713.64673	0.11888
2711.71805	0.11904
2709.78938	0.11920
2707.86070	0.11933
2705.93202	0.11947
2704.00335	0.11963
2702.07467	0.11977
2700.14600	0.11989
2698.21732	0.12001
2696.28865	0.12015
2694.35997	0.12033
2692.43129	0.12051
2690.50262	0.12068
2688.57394	0.12084
2686.64527	0.12098
2684.71659	0.12111
2682.78792	0.12125
2680.85924	0.12141
2678.93056	0.12156
2677.00189	0.12169
2675.07321	0.12183
2673.14454	0.12197
2671.21586	0.12211
2669.28719	0.12227
2667.35851	0.12243
2665.42983	0.12256
2663.50116	0.12269
2661.57248	0.12286
2659.64381	0.12303
2657.71513	0.12318
2655.78646	0.12334
2653.85778	0.12350
2651.92910	0.12365
2650.00043	0.12379
2648.07175	0.12393
2646.14308	0.12408
2644.21440	0.12422
2642.28573	0.12438
2640.35705	0.12460
2638.42837	0.12482
2636.49970	0.12497
2634.57102	0.12509
2632.64235	0.12522
2630.71367	0.12536
2628.78500	0.12552
2626.85632	0.12572
2624.92764	0.12592
2622.99897	0.12609
2621.07029	0.12624
2619.14162	0.12639
2617.21294	0.12657
2615.28427	0.12675
2613.35559	0.12692
2611.42691	0.12707
2609.49824	0.12722
2607.56956	0.12737
2605.64089	0.12752
2603.71221	0.12767
2601.78354	0.12785
2599.85486	0.12802
2597.92618	0.12817
2595.99751	0.12831
2594.06883	0.12848
2592.14016	0.12866
2590.21148	0.12881
2588.28281	0.12894
2586.35413	0.12910
2584.42545	0.12929
2582.49678	0.12947
2580.56810	0.12962
2578.63943	0.12975
2576.71075	0.12990
2574.78208	0.13007
2572.85340	0.13024
2570.92472	0.13041
2568.99605	0.13056
2567.06737	0.13069
2565.13870	0.13083
2563.21002	0.13101
2561.28135	0.13120
2559.35267	0.13135
2557.42399	0.13148
2555.49532	0.13163
2553.56664	0.13177
2551.63797	0.13192
2549.70929	0.13212
2547.78062	0.13232
2545.85194	0.13248
2543.92326	0.13263
2541.99459	0.13276
2540.06591	0.13287
2538.13724	0.13300
2536.20856	0.13316
2534.27989	0.13332
2532.35121	0.13344
2530.42253	0.13357
2528.49386	0.13374
2526.56518	0.13392
2524.63651	0.13410
2522.70783	0.13428
2520.77916	0.13445
2518.85048	0.13460
2516.92181	0.13475
2514.99313	0.13489
2513.06445	0.13503
2511.13578	0.13519
2509.20710	0.13540
2507.27843	0.13563
2505.34975	0.13582
2503.42108	0.13597
2501.49240	0.13613
2499.56372	0.13629
2497.63505	0.13644
2495.70637	0.13659
2493.77770	0.13674
2491.84902	0.13691
2489.92035	0.13709
2487.99167	0.13726
2486.06299	0.13741
2484.13432	0.13758
2482.20564	0.13776
2480.27697	0.13795
2478.34829	0.13816
2476.41962	0.13836
2474.49094	0.13855
2472.56226	0.13871
2470.63359	0.13887
2468.70491	0.13905
2466.77624	0.13923
2464.84756	0.13940
2462.91889	0.13955
2460.99021	0.13970
2459.06153	0.13984
2457.13286	0.14000
2455.20418	0.14018
2453.27551	0.14036
2451.34683	0.14050
2449.41816	0.14065
2447.48948	0.14085
2445.56080	0.14106
2443.63213	0.14121
2441.70345	0.14132
2439.77478	0.14148
2437.84610	0.14168
2435.91743	0.14189
2433.98875	0.14206
2432.06007	0.14221
2430.13140	0.14236
2428.20272	0.14252
2426.27405	0.14265
2424.34537	0.14279
2422.41670	0.14295
2420.48802	0.14313
2418.55934	0.14331
2416.63067	0.14349
2414.70199	0.14365
2412.77332	0.14382
2410.84464	0.14400
2408.91597	0.14418
2406.98729	0.14435
2405.05861	0.14448
2403.12994	0.14463
2401.20126	0.14481
2399.27259	0.14499
2397.34391	0.14516
2395.41524	0.14531
2393.48656	0.14545
2391.55788	0.14558
2389.62921	0.14572
2387.70053	0.14589
2385.77186	0.14607
2383.84318	0.14624
2381.91451	0.14638
2379.98583	0.14649
2378.05715	0.14656
2376.12848	0.14661
2374.19980	0.14664
2372.27113	0.14665
2370.34245	0.14667
2368.41378	0.14671
2366.48510	0.14678
2364.55642	0.14688
2362.62775	0.14701
2360.69907	0.14717
2358.77040	0.14734
2356.84172	0.14752
2354.91305	0.14782
2352.98437	0.14822
2351.05569	0.14859
2349.12702	0.14881
2347.19834	0.14889
2345.26967	0.14890
2343.34099	0.14894
2341.41232	0.14908
2339.48364	0.14926
2337.55496	0.14942
2335.62629	0.14959
2333.69761	0.14979
2331.76894	0.14998
2329.84026	0.15013
2327.91159	0.15025
2325.98291	0.15042
2324.05423	0.15066
2322.12556	0.15092
2320.19688	0.15117
2318.26821	0.15142
2316.33953	0.15165
2314.41086	0.15185
2312.48218	0.15205
2310.55350	0.15227
2308.62483	0.15248
2306.69615	0.15266
2304.76748	0.15284
2302.83880	0.15304
2300.91013	0.15322
2298.98145	0.15340
2297.05277	0.15359
2295.12410	0.15381
2293.19542	0.15399
2291.26675	0.15413
2289.33807	0.15429
2287.40940	0.15447
2285.48072	0.15465
2283.55204	0.15481
2281.62337	0.15497
2279.69469	0.15514
2277.76602	0.15529
2275.83734	0.15541
2273.90867	0.15557
2271.97999	0.15578
2270.05131	0.15598
2268.12264	0.15614
2266.19396	0.15631
2264.26529	0.15649
2262.33661	0.15667
2260.40794	0.15682
2258.47926	0.15699
2256.55058	0.15719
2254.62191	0.15739
2252.69323	0.15754
2250.76456	0.15763
2248.83588	0.15771
2246.90721	0.15784
2244.97853	0.15803
2243.04985	0.15823
2241.12118	0.15843
2239.19250	0.15860
2237.26383	0.15875
2235.33515	0.15890
2233.40648	0.15907
2231.47780	0.15928
2229.54912	0.15947
2227.62045	0.15962
2225.69177	0.15976
2223.76310	0.15993
2221.83442	0.16010
2219.90575	0.16026
2217.97707	0.16041
2216.04839	0.16056
2214.11972	0.16069
2212.19104	0.16084
2210.26237	0.16101
2208.33369	0.16120
2206.40502	0.16138
2204.47634	0.16154
2202.54766	0.16168
2200.61899	0.16183
2198.69031	0.16200
2196.76164	0.16218
2194.83296	0.16232
2192.90429	0.16244
2190.97561	0.16258
2189.04693	0.16274
2187.11826	0.16294
2185.18958	0.16316
2183.26091	0.16336
2181.33223	0.16354
2179.40356	0.16369
2177.47488	0.16381
2175.54620	0.16393
2173.61753	0.16411
2171.68885	0.16432
2169.76018	0.16452
2167.83150	0.16468
2165.90283	0.16482
2163.97415	0.16495
2162.04547	0.16511
2160.11680	0.16530
2158.18812	0.16547
2156.25945	0.16563
2154.33077	0.16580
2152.40210	0.16599
2150.47342	0.16616
2148.54474	0.16633
2146.61607	0.16648
2144.68739	0.16662
2142.75872	0.16677
2140.83004	0.16696
2138.90137	0.16715
2136.97269	0.16731
2135.04401	0.16747
2133.11534	0.16763
2131.18666	0.16781
2129.25799	0.16799
2127.32931	0.16818
2125.40064	0.16833
2123.47196	0.16845
2121.54328	0.16858
2119.61461	0.16875
2117.68593	0.16894
2115.75726	0.16914
2113.82858	0.16932
2111.89991	0.16948
2109.97123	0.16968
2108.04255	0.16989
2106.11388	0.17008
2104.18520	0.17024
2102.25653	0.17037
2100.32785	0.17049
2098.39918	0.17064
2096.47050	0.17084
2094.54182	0.17105
2092.61315	0.17123
2090.68447	0.17139
2088.75580	0.17158
2086.82712	0.17177
2084.89845	0.17193
2082.96977	0.17208
2081.04109	0.17224
2079.11242	0.17238
2077.18374	0.17251
2075.25507	0.17267
2073.32639	0.17285
2071.39772	0.17302
2069.46904	0.17318
2067.54036	0.17334
2065.61169	0.17348
2063.68301	0.17363
2061.75434	0.17382
2059.82566	0.17402
2057.89699	0.17419
2055.96831	0.17435
2054.03963	0.17450
2052.11096	0.17467
2050.18228	0.17487
2048.25361	0.17507
2046.32493	0.17525
2044.39626	0.17540
2042.46758	0.17551
2040.53890	0.17566
2038.61023	0.17585
2036.68155	0.17607
2034.75288	0.17625
2032.82420	0.17639
2030.89553	0.17656
2028.96685	0.17676
2027.03817	0.17693
2025.10950	0.17707
2023.18082	0.17725
2021.25215	0.17745
2019.32347	0.17761
2017.39480	0.17777
2015.46612	0.17794
2013.53744	0.17812
2011.60877	0.17830
2009.68009	0.17848
2007.75142	0.17863
2005.82274	0.17877
2003.89407	0.17890
2001.96539	0.17905
2000.03671	0.17925
1998.10804	0.17946
1996.17936	0.17960
1994.25069	0.17967
1992.32201	0.17974
1990.39334	0.17989
1988.46466	0.18008
1986.53598	0.18025
1984.60731	0.18045
1982.67863	0.18066
1980.74996	0.18084
1978.82128	0.18096
1976.89261	0.18105
1974.96393	0.18118
1973.03525	0.18133
1971.10658	0.18147
1969.17790	0.18159
1967.24923	0.18169
1965.32055	0.18179
1963.39188	0.18192
1961.46320	0.18211
1959.53452	0.18233
1957.60585	0.18255
1955.67717	0.18272
1953.74850	0.18288
1951.81982	0.18304
1949.89115	0.18320
1947.96247	0.18336
1946.03379	0.18348
1944.10512	0.18356
1942.17644	0.18370
1940.24777	0.18390
1938.31909	0.18411
1936.39042	0.18431
1934.46174	0.18451
1932.53306	0.18466
1930.60439	0.18479
1928.67571	0.18493
1926.74704	0.18510
1924.81836	0.18524
1922.88969	0.18536
1920.96101	0.18549
1919.03233	0.18565
1917.10366	0.18586
1915.17498	0.18611
1913.24631	0.18628
1911.31763	0.18636
1909.38896	0.18647
1907.46028	0.18666
1905.53160	0.18690
1903.60293	0.18710
1901.67425	0.18724
1899.74558	0.18738
1897.81690	0.18751
1895.88823	0.18766
1893.95955	0.18784
1892.03087	0.18794
1890.10220	0.18802
1888.17352	0.18820
1886.24485	0.18845
1884.31617	0.18866
1882.38750	0.18884
1880.45882	0.18899
1878.53014	0.18915
1876.60147	0.18933
1874.67279	0.18947
1872.74412	0.18955
1870.81544	0.18955
1868.88677	0.18959
1866.95809	0.18982
1865.02941	0.19016
1863.10074	0.19044
1861.17206	0.19063
1859.24339	0.19082
1857.31471	0.19103
1855.38604	0.19122
1853.45736	0.19136
1851.52868	0.19145
1849.60001	0.19151
1847.67133	0.19149
1845.74266	0.19142
1843.81398	0.19159
1841.88531	0.19204
1839.95663	0.19245
1838.02795	0.19267
1836.09928	0.19284
1834.17060	0.19301
1832.24193	0.19309
1830.31325	0.19312
1828.38458	0.19322
1826.45590	0.19336
1824.52722	0.19358
1822.59855	0.19390
1820.66987	0.19414
1818.74120	0.19427
1816.81252	0.19439
1814.88385	0.19453
1812.95517	0.19466
1811.02649	0.19474
1809.09782	0.19483
1807.16914	0.19496
1805.24047	0.19509
1803.31179	0.19514
1801.38312	0.19524
1799.45444	0.19545
1797.52576	0.19564
1795.59709	0.19569
1793.66841	0.19570
1791.73974	0.19585
1789.81106	0.19616
1787.88239	0.19639
1785.95371	0.19648
1784.02503	0.19659
1782.09636	0.19674
1780.16768	0.19682
1778.23901	0.19686
1776.31033	0.19687
1774.38166	0.19678
1772.45298	0.19667
1770.52430	0.19677
1768.59563	0.19710
1766.66695	0.19748
1764.73828	0.19774
1762.80960	0.19781
1760.88093	0.19788
1758.95225	0.19800
1757.02357	0.19806
1755.09490	0.19800
1753.16622	0.19772
1751.23755	0.19741
1749.30887	0.19745
1747.38020	0.19770
1745.45152	0.19785
1743.52284	0.19785
1741.59417	0.19778
1739.66549	0.19778
1737.73682	0.19782
1735.80814	0.19764
1733.87947	0.19750
1731.95079	0.19781
1730.02211	0.19831
1728.09344	0.19868
1726.16476	0.19894
1724.23609	0.19911
1722.30741	0.19913
1720.37874	0.19882
1718.45006	0.19839
1716.52138	0.19842
1714.59271	0.19894
1712.66403	0.19948
1710.73536	0.19978
1708.80668	0.19980
1706.87801	0.19973
1704.94933	0.19986
1703.02065	0.19996
1701.09198	0.19989
1699.16330	0.19988
1697.23463	0.19996
1695.30595	0.20012
1693.37728	0.20045
1691.44860	0.20068
1689.51992	0.20068
1687.59125	0.20047
1685.66257	0.20000
1683.73390	0.19978
1681.80522	0.20014
1679.87655	0.20057
1677.94787	0.20051
1676.01919	0.20018
1674.09052	0.20016
1672.16184	0.20035
1670.23317	0.20046
1668.30449	0.20072
1666.37582	0.20108
1664.44714	0.20122
1662.51846	0.20127
1660.58979	0.20141
1658.66111	0.20151
1656.73244	0.20115
1654.80376	0.20023
1652.87509	0.19974
1650.94641	0.20035
1649.01773	0.20100
1647.08906	0.20112
1645.16038	0.20132
1643.23171	0.20173
1641.30303	0.20195
1639.37436	0.20179
1637.44568	0.20151
1635.51700	0.20151
1633.58833	0.20186
1631.65965	0.20217
1629.73098	0.20222
1627.80230	0.20211
1625.87363	0.20190
1623.94495	0.20156
1622.01627	0.20126
1620.08760	0.20119
1618.15892	0.20136
1616.23025	0.20188
1614.30157	0.20262
1612.37290	0.20323
1610.44422	0.20359
1608.51554	0.20386
1606.58687	0.20413
1604.65819	0.20431
1602.72952	0.20447
1600.80084	0.20467
1598.87217	0.20488
1596.94349	0.20504
1595.01481	0.20520
1593.08614	0.20541
1591.15746	0.20566
1589.22879	0.20588
1587.30011	0.20602
1585.37144	0.20611
1583.44276	0.20624
1581.51408	0.20636
1579.58541	0.20621
1577.65673	0.20583
1575.72806	0.20585
1573.79938	0.20638
1571.87071	0.20670
1569.94203	0.20668
1568.01335	0.20680
1566.08468	0.20704
1564.15600	0.20720
1562.22733	0.20705
1560.29865	0.20652
1558.36998	0.20627
1556.44130	0.20680
1554.51262	0.20756
1552.58395	0.20797
1550.65527	0.20813
1548.72660	0.20826
1546.79792	0.20822
1544.86925	0.20785
1542.94057	0.20743
1541.01189	0.20737
1539.08322	0.20782
1537.15454	0.20843
1535.22587	0.20870
1533.29719	0.20884
1531.36852	0.20915
1529.43984	0.20932
1527.51116	0.20925
1525.58249	0.20915
1523.65381	0.20896
1521.72514	0.20888
1519.79646	0.20911
1517.86779	0.20936
1515.93911	0.20945
1514.01043	0.20955
1512.08176	0.20962
1510.15308	0.20940
1508.22441	0.20899
1506.29573	0.20904
1504.36706	0.20964
1502.43838	0.21010
1500.50970	0.21008
1498.58103	0.20980
1496.65235	0.20965
1494.72368	0.20989
1492.79500	0.21009
1490.86633	0.20990
1488.93765	0.20968
1487.00897	0.20973
1485.08030	0.20983
1483.15162	0.20974
1481.22295	0.20954
1479.29427	0.20931
1477.36560	0.20886
1475.43692	0.20819
1473.50824	0.20767
1471.57957	0.20756
1469.65089	0.20763
1467.72222	0.20750
1465.79354	0.20719
1463.86487	0.20704
1461.93619	0.20691
1460.00751	0.20640
1458.07884	0.20579
1456.15016	0.20573
1454.22149	0.20611
1452.29281	0.20641
1450.36414	0.20644
1448.43546	0.20642
1446.50678	0.20656
1444.57811	0.20681
1442.64943	0.20702
1440.72076	0.20712
1438.79208	0.20707
1436.86341	0.20703
1434.93473	0.20721
1433.00605	0.20748
1431.07738	0.20765
1429.14870	0.20781
1427.22003	0.20791
1425.29135	0.20787
1423.36268	0.20771
1421.43400	0.20743
1419.50532	0.20717
1417.57665	0.20737
1415.64797	0.20782
1413.71930	0.20803
1411.79062	0.20808
1409.86195	0.20813
1407.93327	0.20810
1406.00459	0.20797
1404.07592	0.20789
1402.14724	0.20791
1400.21857	0.20788
1398.28989	0.20781
1396.36122	0.20773
1394.43254	0.20770
1392.50386	0.20776
1390.57519	0.20777
1388.64651	0.20754
1386.71784	0.20718
1384.78916	0.20696
1382.86049	0.20694
1380.93181	0.20697
1379.00313	0.20699
1377.07446	0.20691
1375.14578	0.20674
1373.21711	0.20670
1371.28843	0.20687
1369.35976	0.20700
1367.43108	0.20698
1365.50240	0.20682
1363.57373	0.20665
1361.64505	0.20667
1359.71638	0.20686
1357.78770	0.20697
1355.85903	0.20696
1353.93035	0.20700
1352.00167	0.20710
1350.07300	0.20720
1348.14432	0.20730
1346.21565	0.20740
1344.28697	0.20743
1342.35830	0.20734
1340.42962	0.20722
1338.50094	0.20718
1336.57227	0.20716
1334.64359	0.20707
1332.71492	0.20694
1330.78624	0.20679
1328.85757	0.20668
1326.92889	0.20659
1325.00021	0.20645
1323.07154	0.20630
1321.14286	0.20615
1319.21419	0.20599
1317.28551	0.20582
1315.35684	0.20562
1313.42816	0.20541
1311.49948	0.20519
1309.57081	0.20497
1307.64213	0.20476
1305.71346	0.20453
1303.78478	0.20429
1301.85611	0.20407
1299.92743	0.20388
1297.99875	0.20370
1296.07008	0.20352
1294.14140	0.20334
1292.21273	0.20314
1290.28405	0.20293
1288.35538	0.20273
1286.42670	0.20252
1284.49802	0.20232
1282.56935	0.20211
1280.64067	0.20188
1278.71200	0.20162
1276.78332	0.20125
1274.85465	0.20079
1272.92597	0.20028
1270.99729	0.19967
1269.06862	0.19884
1267.13994	0.19783
1265.21127	0.19690
1263.28259	0.19630
1261.35392	0.19607
1259.42524	0.19610
1257.49656	0.19631
1255.56789	0.19653
1253.63921	0.19658
1251.71054	0.19643
1249.78186	0.19619
1247.85319	0.19590
1245.92451	0.19558
1243.99583	0.19519
1242.06716	0.19474
1240.13848	0.19424
1238.20981	0.19369
1236.28113	0.19314
1234.35246	0.19261
1232.42378	0.19207
1230.49510	0.19150
1228.56643	0.19090
1226.63775	0.19032
1224.70908	0.18978
1222.78040	0.18930
1220.85173	0.18884
1218.92305	0.18835
1216.99437	0.18786
1215.06570	0.18733
1213.13702	0.18676
1211.20835	0.18615
1209.27967	0.18551
1207.35100	0.18489
1205.42232	0.18431
1203.49364	0.18372
1201.56497	0.18308
1199.63629	0.18249
1197.70762	0.18197
1195.77894	0.18138
1193.85027	0.18074
1191.92159	0.18009
1189.99291	0.17936
1188.06424	0.17857
1186.13556	0.17779
1184.20689	0.17702
1182.27821	0.17623
1180.34954	0.17543
1178.42086	0.17460
1176.49218	0.17374
1174.56351	0.17285
1172.63483	0.17195
1170.70616	0.17108
1168.77748	0.17026
1166.84881	0.16941
1164.92013	0.16851
1162.99145	0.16760
1161.06278	0.16671
1159.13410	0.16585
1157.20543	0.16503
1155.27675	0.16424
1153.34808	0.16347
1151.41940	0.16270
1149.49072	0.16192
1147.56205	0.16110
1145.63337	0.16023
1143.70470	0.15931
1141.77602	0.15832
1139.84735	0.15723
1137.91867	0.15611
1135.98999	0.15496
1134.06132	0.15361
1132.13264	0.15197
1130.20397	0.15010
1128.27529	0.14803
1126.34662	0.14575
1124.41794	0.14335
1122.48926	0.14091
1120.56059	0.13853
1118.63191	0.13627
1116.70324	0.13418
1114.77456	0.13226
1112.84589	0.13061
1110.91721	0.12930
1108.98853	0.12825
1107.05986	0.12749
1105.13118	0.12705
1103.20251	0.12691
1101.27383	0.12703
1099.34516	0.12744
1097.41648	0.12804
1095.48780	0.12874
1093.55913	0.12956
1091.63045	0.13044
1089.70178	0.13126
1087.77310	0.13198
1085.84443	0.13259
1083.91575	0.13311
1081.98707	0.13359
1080.05840	0.13398
1078.12972	0.13421
1076.20105	0.13429
1074.27237	0.13439
1072.34370	0.13455
1070.41502	0.13466
1068.48634	0.13470
1066.55767	0.13484
1064.62899	0.13514
1062.70032	0.13537
1060.77164	0.13550
1058.84297	0.13566
1056.91429	0.13594
1054.98561	0.13623
1053.05694	0.13648
1051.12826	0.13680
1049.19959	0.13718
1047.27091	0.13756
1045.34224	0.13799
1043.41356	0.13842
1041.48488	0.13883
1039.55621	0.13930
1037.62753	0.13979
1035.69886	0.14015
1033.77018	0.14042
1031.84151	0.14077
1029.91283	0.14119
1027.98415	0.14159
1026.05548	0.14192
1024.12680	0.14223
1022.19813	0.14252
1020.26945	0.14281
1018.34078	0.14318
1016.41210	0.14369
1014.48342	0.14432
1012.55475	0.14493
1010.62607	0.14547
1008.69740	0.14599
1006.76872	0.14652
1004.84005	0.14704
1002.91137	0.14748
1000.98269	0.14784
999.05402	0.14816
997.12534	0.14845
995.19667	0.14865
993.26799	0.14873
991.33932	0.14878
989.41064	0.14883
987.48196	0.14887
985.55329	0.14886
983.62461	0.14882
981.69594	0.14875
979.76726	0.14866
977.83859	0.14855
975.90991	0.14840
973.98123	0.14819
972.05256	0.14795
970.12388	0.14776
968.19521	0.14765
966.26653	0.14751
964.33786	0.14734
962.40918	0.14718
960.48050	0.14701
958.55183	0.14685
956.62315	0.14676
954.69448	0.14663
952.76580	0.14643
950.83713	0.14627
948.90845	0.14613
946.97977	0.14594
945.05110	0.14573
943.12242	0.14549
941.19375	0.14514
939.26507	0.14464
937.33640	0.14408
935.40772	0.14361
933.47904	0.14319
931.55037	0.14275
929.62169	0.14221
927.69302	0.14161
925.76434	0.14105
923.83567	0.14053
921.90699	0.13995
919.97831	0.13929
918.04964	0.13857
916.12096	0.13786
914.19229	0.13715
912.26361	0.13638
910.33494	0.13562
908.40626	0.13490
906.47758	0.13420
904.54891	0.13353
902.62023	0.13292
900.69156	0.13239
898.76288	0.13195
896.83421	0.13148
894.90553	0.13093
892.97685	0.13037
891.04818	0.12986
889.11950	0.12937
887.19083	0.12891
885.26215	0.12853
883.33348	0.12821
881.40480	0.12789
879.47612	0.12755
877.54745	0.12722
875.61877	0.12692
873.69010	0.12667
871.76142	0.12645
869.83275	0.12623
867.90407	0.12603
865.97539	0.12586
864.04672	0.12563
862.11804	0.12535
860.18937	0.12518
858.26069	0.12516
856.33202	0.12511
854.40334	0.12494
852.47466	0.12469
850.54599	0.12442
848.61731	0.12409
846.68864	0.12375
844.75996	0.12349
842.83129	0.12330
840.90261	0.12308
838.97394	0.12274
837.04526	0.12221
835.11658	0.12156
833.18791	0.12079
831.25923	0.11988
829.33056	0.11887
827.40188	0.11777
825.47321	0.11664
823.54453	0.11559
821.61585	0.11474
819.68718	0.11409
817.75850	0.11359
815.82983	0.11320
813.90115	0.11286
811.97248	0.11257
810.04380	0.11235
808.11512	0.11220
806.18645	0.11209
804.25777	0.11198
802.32910	0.11187
800.40042	0.11163
798.47175	0.11106
796.54307	0.11033
794.61439	0.10979
792.68572	0.10945
790.75704	0.10918
788.82837	0.10894
786.89969	0.10871
784.97102	0.10848
783.04234	0.10819
781.11366	0.10785
779.18499	0.10755
777.25631	0.10732
775.32764	0.10706
773.39896	0.10671
771.47029	0.10629
769.54161	0.10591
767.61293	0.10555
765.68426	0.10517
763.75558	0.10474
761.82691	0.10424
759.89823	0.10376
757.96956	0.10328
756.04088	0.10270
754.11220	0.10202
752.18353	0.10135
750.25485	0.10062
748.32618	0.09975
746.39750	0.09887
744.46883	0.09805
742.54015	0.09721
740.61147	0.09637
738.68280	0.09576
736.75412	0.09555
734.82545	0.09564
732.89677	0.09574
730.96810	0.09574
729.03942	0.09572
727.11074	0.09576
725.18207	0.09588
723.25339	0.09604
721.32472	0.09618
719.39604	0.09635
717.46737	0.09664
715.53869	0.09709
713.61001	0.09761
711.68134	0.09804
709.75266	0.09833
707.82399	0.09841
705.89531	0.09827
703.96664	0.09805
702.03796	0.09781
700.10928	0.09749
698.18061	0.09700
696.25193	0.09641
694.32326	0.09582
692.39458	0.09525
690.46591	0.09469
688.53723	0.09413
686.60855	0.09356
684.67988	0.09299
682.75120	0.09246
680.82253	0.09193
678.89385	0.09140
676.96518	0.09086
675.03650	0.09022
673.10782	0.08944
671.17915	0.08856
669.25047	0.08766
667.32180	0.08688
665.39312	0.08619
663.46445	0.08541
661.53577	0.08458
659.60709	0.08375
657.67842	0.08284
655.74974	0.08193
653.82107	0.08112
651.89239	0.08031
649.96372	0.07942
648.03504	0.07849
646.10636	0.07757
644.17769	0.07665
642.24901	0.07569
640.32034	0.07465
638.39166	0.07359
636.46299	0.07252
634.53431	0.07138
632.60563	0.06993
630.67696	0.06758
628.74828	0.06401
626.81961	0.05952
624.89093	0.05494
622.96226	0.05125
621.03358	0.04887
619.10490	0.04758
617.17623	0.04678
615.24755	0.04592
613.31888	0.04486
611.39020	0.04385
609.46153	0.04332
607.53285	0.04341
605.60417	0.04384
603.67550	0.04434
601.74682	0.04504
599.81815	0.04600
597.88947	0.04698
595.96080	0.04777
594.03212	0.04827
592.10344	0.04848
590.17477	0.04849
588.24609	0.04842
586.31742	0.04831
584.38874	0.04812
582.46007	0.04784
580.53139	0.04747
578.60271	0.04701
576.67404	0.04650
574.74536	0.04598
572.81669	0.04541
570.88801	0.04472
568.95934	0.04401
567.03066	0.04341
565.10198	0.04300
563.17331	0.04274
561.24463	0.04256
559.31596	0.04234
557.38728	0.04211
555.45861	0.04192
553.52993	0.04171
551.60125	0.04149
549.67258	0.04130
547.74390	0.04110
545.81523	0.04085
543.88655	0.04064
541.95788	0.04055
540.02920	0.04050
538.10052	0.04026
536.17185	0.03989
534.24317	0.03966
532.31450	0.03954
530.38582	0.03929
528.45715	0.03892
526.52847	0.03858
524.59979	0.03836
522.67112	0.03814
520.74244	0.03773
518.81377	0.03715
516.88509	0.03646
514.95642	0.03574
513.02774	0.03512
511.09906	0.03480
509.17039	0.03472
507.24171	0.03467
505.31304	0.03446
503.38436	0.03410
501.45569	0.03369
499.52701	0.03325
497.59833	0.03274
495.66966	0.03222
493.74098	0.03166
491.81231	0.03100
489.88363	0.03033
487.95496	0.02972
486.02628	0.02914
484.09760	0.02851
482.16893	0.02793
480.24025	0.02747
478.31158	0.02702
476.38290	0.02644
474.45423	0.02579
472.52555	0.02523
470.59687	0.02480
468.66820	0.02446
466.73952	0.02419
464.81085	0.02393
462.88217	0.02370
460.95350	0.02354
459.02482	0.02343
457.09614	0.02334
455.16747	0.02329
453.23879	0.02330
451.31012	0.02330
449.38144	0.02321
447.45277	0.02299
445.52409	0.02269
443.59541	0.02242
441.66674	0.02223
439.73806	0.02197
437.80939	0.02152
435.88071	0.02093
433.95204	0.02040
432.02336	0.01993
430.09468	0.01933
428.16601	0.01858
426.23733	0.01784
424.30866	0.01721
422.37998	0.01666
420.45131	0.01616
418.52263	0.01561
416.59395	0.01495
414.66528	0.01421
412.73660	0.01355
410.80793	0.01290
408.87925	0.01219
406.95058	0.01152
405.02190	0.01099
403.09322	0.01051
401.16455	0.00995
399.23587	0.00923
397.30720	0.00852
395.37852	0.00805
393.44985	0.00769
391.52117	0.00720
389.59249	0.00666
387.66382	0.00625
385.73514	0.00589
383.80647	0.00549
381.87779	0.00507
379.94912	0.00464
378.02044	0.00424
376.09176	0.00385
374.16309	0.00344
372.23441	0.00307
370.30574	0.00283
368.37706	0.00259
