7496.76250	0.00121
7494.83382	0.00123
7492.90514	0.00123
7490.97647	0.00123
7489.04779	0.00122
7487.11912	0.00122
7485.19044	0.00122
7483.26177	0.00123
7481.33309	0.00124
7479.40441	0.00125
7477.47574	0.00125
7475.54706	0.00124
7473.61839	0.00123
7471.68971	0.00123
7469.76104	0.00125
7467.83236	0.00126
7465.90368	0.00126
7463.97501	0.00128
7462.04633	0.00129
7460.11766	0.00129
7458.18898	0.00128
7456.26031	0.00128
7454.33163	0.00128
7452.40295	0.00129
7450.47428	0.00130
7448.54560	0.00131
7446.61693	0.00132
7444.68825	0.00132
7442.75958	0.00131
7440.83090	0.00130
7438.90222	0.00131
7436.97355	0.00133
7435.04487	0.00135
7433.11620	0.00134
7431.18752	0.00133
7429.25885	0.00133
7427.33017	0.00133
7425.40149	0.00133
7423.47282	0.00135
7421.54414	0.00136
7419.61547	0.00136
7417.68679	0.00136
7415.75812	0.00136
7413.82944	0.00136
7411.90076	0.00136
7409.97209	0.00137
7408.04341	0.00137
7406.11474	0.00137
7404.18606	0.00137
7402.25739	0.00137
7400.32871	0.00137
7398.40003	0.00138
7396.47136	0.00138
7394.54268	0.00139
7392.61401	0.00139
7390.68533	0.00138
7388.75666	0.00138
7386.82798	0.00139
7384.89930	0.00140
7382.97063	0.00140
7381.04195	0.00140
7379.11328	0.00142
7377.18460	0.00144
7375.25593	0.00145
7373.32725	0.00145
7371.39857	0.00145
7369.46990	0.00145
7367.54122	0.00145
7365.61255	0.00145
7363.68387	0.00144
7361.75520	0.00143
7359.82652	0.00144
7357.89784	0.00145
7355.96917	0.00145
7354.04049	0.00145
7352.11182	0.00146
7350.18314	0.00148
7348.25447	0.00149
7346.32579	0.00150
7344.39711	0.00151
7342.46844	0.00150
7340.53976	0.00149
7338.61109	0.00148
7336.68241	0.00148
7334.75374	0.00149
7332.82506	0.00150
7330.89638	0.00151
7328.96771	0.00152
7327.03903	0.00153
7325.11036	0.00153
7323.18168	0.00153
7321.25301	0.00154
7319.32433	0.00155
7317.39565	0.00155
7315.46698	0.00155
7313.53830	0.00154
7311.60963	0.00154
7309.68095	0.00155
7307.75228	0.00155
7305.82360	0.00155
7303.89492	0.00155
7301.96625	0.00157
7300.03757	0.00158
7298.10890	0.00159
7296.18022	0.00160
7294.25155	0.00160
7292.32287	0.00161
7290.39419	0.00161
7288.46552	0.00161
7286.53684	0.00160
7284.60817	0.00161
7282.67949	0.00160
7280.75082	0.00160
7278.82214	0.00160
7276.89346	0.00162
7274.96479	0.00163
7273.03611	0.00163
7271.10744	0.00161
7269.17876	0.00160
7267.25009	0.00162
7265.32141	0.00163
7263.39273	0.00163
7261.46406	0.00162
7259.53538	0.00162
7257.60671	0.00163
7255.67803	0.00165
7253.74936	0.00167
7251.82068	0.00167
7249.89200	0.00168
7247.96333	0.00170
7246.03465	0.00170
7244.10598	0.00169
7242.17730	0.00168
7240.24863	0.00167
7238.31995	0.00168
7236.39127	0.00169
7234.46260	0.00169
7232.53392	0.00168
7230.60525	0.00168
7228.67657	0.00169
7226.74790	0.00169
7224.81922	0.00169
7222.89054	0.00170
7220.96187	0.00171
7219.03319	0.00171
7217.10452	0.00172
7215.17584	0.00172
7213.24717	0.00173
7211.31849	0.00174
7209.38981	0.00175
7207.46114	0.00175
7205.53246	0.00176
7203.60379	0.00177
7201.67511	0.00177
7199.74644	0.00176
7197.81776	0.00176
7195.88908	0.00177
7193.96041	0.00178
7192.03173	0.00178
7190.10306	0.00178
7188.17438	0.00179
7186.24571	0.00180
7184.31703	0.00180
7182.38835	0.00180
7180.45968	0.00180
7178.53100	0.00180
7176.60233	0.00181
7174.67365	0.00182
7172.74498	0.00183
7170.81630	0.00183
7168.88762	0.00184
7166.95895	0.00185
7165.03027	0.00185
7163.10160	0.00185
7161.17292	0.00185
7159.24425	0.00185
7157.31557	0.00185
7155.38689	0.00184
7153.45822	0.00185
7151.52954	0.00186
7149.60087	0.00187
7147.67219	0.00189
7145.74352	0.00190
7143.81484	0.00191
7141.88616	0.00191
7139.95749	0.00191
7138.02881	0.00190
7136.10014	0.00190
7134.17146	0.00190
7132.24279	0.00191
7130.31411	0.00192
7128.38543	0.00192
7126.45676	0.00191
7124.52808	0.00191
7122.59941	0.00192
7120.67073	0.00193
7118.74206	0.00192
7116.81338	0.00192
7114.88470	0.00193
7112.95603	0.00194
7111.02735	0.00196
7109.09868	0.00197
7107.17000	0.00197
7105.24133	0.00198
7103.31265	0.00199
7101.38397	0.00199
7099.45530	0.00199
7097.52662	0.00200
7095.59795	0.00200
7093.66927	0.00200
7091.74060	0.00199
7089.81192	0.00199
7087.88324	0.00201
7085.95457	0.00203
7084.02589	0.00205
7082.09722	0.00205
7080.16854	0.00205
7078.23987	0.00204
7076.31119	0.00203
7074.38251	0.00203
7072.45384	0.00204
7070.52516	0.00205
7068.59649	0.00206
7066.66781	0.00207
7064.73914	0.00206
7062.81046	0.00206
7060.88178	0.00206
7058.95311	0.00206
7057.02443	0.00206
7055.09576	0.00207
7053.16708	0.00209
7051.23841	0.00210
7049.30973	0.00210
7047.38105	0.00211
7045.45238	0.00210
7043.52370	0.00209
7041.59503	0.00210
7039.66635	0.00211
7037.73768	0.00212
7035.80900	0.00212
7033.88032	0.00213
7031.95165	0.00215
7030.02297	0.00215
7028.09430	0.00213
7026.16562	0.00213
7024.23695	0.00213
7022.30827	0.00215
7020.37959	0.00216
7018.45092	0.00217
7016.52224	0.00218
7014.59357	0.00220
7012.66489	0.00220
7010.73622	0.00219
7008.80754	0.00218
7006.87886	0.00219
7004.95019	0.00222
7003.02151	0.00223
7001.09284	0.00222
6999.16416	0.00221
6997.23549	0.00221
6995.30681	0.00222
6993.37813	0.00223
6991.44946	0.00224
6989.52078	0.00226
6987.59211	0.00225
6985.66343	0.00223
6983.73476	0.00220
6981.80608	0.00222
6979.87740	0.00225
6977.94873	0.00228
6976.02005	0.00228
6974.09138	0.00227
6972.16270	0.00227
6970.23403	0.00228
6968.30535	0.00230
6966.37667	0.00231
6964.44800	0.00230
6962.51932	0.00229
6960.59065	0.00228
6958.66197	0.00228
6956.73330	0.00230
6954.80462	0.00233
6952.87594	0.00234
6950.94727	0.00235
6949.01859	0.00236
6947.08992	0.00235
6945.16124	0.00234
6943.23257	0.00235
6941.30389	0.00236
6939.37521	0.00238
6937.44654	0.00238
6935.51786	0.00238
6933.58919	0.00239
6931.66051	0.00239
6929.73184	0.00240
6927.80316	0.00240
6925.87448	0.00241
6923.94581	0.00242
6922.01713	0.00241
6920.08846	0.00240
6918.15978	0.00239
6916.23111	0.00240
6914.30243	0.00241
6912.37375	0.00241
6910.44508	0.00242
6908.51640	0.00243
6906.58773	0.00245
6904.65905	0.00246
6902.73038	0.00246
6900.80170	0.00247
6898.87302	0.00248
6896.94435	0.00249
6895.01567	0.00248
6893.08700	0.00248
6891.15832	0.00249
6889.22965	0.00250
6887.30097	0.00252
6885.37229	0.00254
6883.44362	0.00255
6881.51494	0.00255
6879.58627	0.00255
6877.65759	0.00254
6875.72892	0.00254
6873.80024	0.00254
6871.87156	0.00254
6869.94289	0.00255
6868.01421	0.00256
6866.08554	0.00256
6864.15686	0.00256
6862.22819	0.00257
6860.29951	0.00258
6858.37083	0.00257
6856.44216	0.00256
6854.51348	0.00257
6852.58481	0.00258
6850.65613	0.00258
6848.72746	0.00258
6846.79878	0.00260
6844.87010	0.00262
6842.94143	0.00264
6841.01275	0.00265
6839.08408	0.00266
6837.15540	0.00266
6835.22673	0.00266
6833.29805	0.00267
6831.36937	0.00267
6829.44070	0.00266
6827.51202	0.00266
6825.58335	0.00266
6823.65467	0.00265
6821.72600	0.00266
6819.79732	0.00269
6817.86864	0.00271
6815.93997	0.00272
6814.01129	0.00271
6812.08262	0.00270
6810.15394	0.00272
6808.22527	0.00272
6806.29659	0.00272
6804.36791	0.00273
6802.43924	0.00274
6800.51056	0.00275
6798.58189	0.00274
6796.65321	0.00275
6794.72454	0.00277
6792.79586	0.00278
6790.86718	0.00279
6788.93851	0.00279
6787.00983	0.00278
6785.08116	0.00278
6783.15248	0.00280
6781.22381	0.00280
6779.29513	0.00280
6777.36645	0.00280
6775.43778	0.00280
6773.50910	0.00280
6771.58043	0.00281
6769.65175	0.00282
6767.72308	0.00282
6765.79440	0.00282
6763.86572	0.00283
6761.93705	0.00285
6760.00837	0.00286
6758.07970	0.00286
6756.15102	0.00287
6754.22235	0.00288
6752.29367	0.00290
6750.36499	0.00291
6748.43632	0.00291
6746.50764	0.00290
6744.57897	0.00290
6742.65029	0.00292
6740.72162	0.00294
6738.79294	0.00294
6736.86426	0.00294
6734.93559	0.00293
6733.00691	0.00294
6731.07824	0.00296
6729.14956	0.00296
6727.22089	0.00295
6725.29221	0.00295
6723.36353	0.00297
6721.43486	0.00299
6719.50618	0.00300
6717.57751	0.00301
6715.64883	0.00301
6713.72016	0.00302
6711.79148	0.00303
6709.86280	0.00304
6707.93413	0.00304
6706.00545	0.00305
6704.07678	0.00305
6702.14810	0.00304
6700.21943	0.00305
6698.29075	0.00306
6696.36207	0.00306
6694.43340	0.00307
6692.50472	0.00308
6690.57605	0.00308
6688.64737	0.00309
6686.71870	0.00311
6684.79002	0.00312
6682.86134	0.00313
6680.93267	0.00313
6679.00399	0.00314
6677.07532	0.00316
6675.14664	0.00317
6673.21797	0.00317
6671.28929	0.00316
6669.36061	0.00316
6667.43194	0.00317
6665.50326	0.00319
6663.57459	0.00320
6661.64591	0.00320
6659.71724	0.00321
6657.78856	0.00323
6655.85988	0.00324
6653.93121	0.00323
6652.00253	0.00323
6650.07386	0.00324
6648.14518	0.00325
6646.21651	0.00326
6644.28783	0.00326
6642.35915	0.00325
6640.43048	0.00324
6638.50180	0.00326
6636.57313	0.00329
6634.64445	0.00329
6632.71578	0.00328
6630.78710	0.00328
6628.85842	0.00328
6626.92975	0.00329
6625.00107	0.00332
6623.07240	0.00334
6621.14372	0.00335
6619.21505	0.00336
6617.28637	0.00336
6615.35769	0.00337
6613.42902	0.00336
6611.50034	0.00336
6609.57167	0.00335
6607.64299	0.00333
6605.71432	0.00333
6603.78564	0.00335
6601.85696	0.00338
6599.92829	0.00340
6597.99961	0.00341
6596.07094	0.00340
6594.14226	0.00342
6592.21359	0.00345
6590.28491	0.00346
6588.35623	0.00346
6586.42756	0.00347
6584.49888	0.00347
6582.57021	0.00348
6580.64153	0.00348
6578.71286	0.00348
6576.78418	0.00349
6574.85550	0.00350
6572.92683	0.00351
6570.99815	0.00352
6569.06948	0.00353
6567.14080	0.00353
6565.21213	0.00353
6563.28345	0.00354
6561.35477	0.00355
6559.42610	0.00355
6557.49742	0.00356
6555.56875	0.00357
6553.64007	0.00357
6551.71140	0.00357
6549.78272	0.00357
6547.85404	0.00359
6545.92537	0.00360
6543.99669	0.00362
6542.06802	0.00365
6540.13934	0.00365
6538.21067	0.00364
6536.28199	0.00365
6534.35331	0.00367
6532.42464	0.00367
6530.49596	0.00367
6528.56729	0.00366
6526.63861	0.00367
6524.70994	0.00369
6522.78126	0.00371
6520.85258	0.00373
6518.92391	0.00373
6516.99523	0.00372
6515.06656	0.00370
6513.13788	0.00370
6511.20921	0.00371
6509.28053	0.00374
6507.35185	0.00376
6505.42318	0.00376
6503.49450	0.00376
6501.56583	0.00378
6499.63715	0.00379
6497.70848	0.00381
6495.77980	0.00383
6493.85112	0.00384
6491.92245	0.00383
6489.99377	0.00382
6488.06510	0.00382
6486.13642	0.00383
6484.20775	0.00384
6482.27907	0.00386
6480.35039	0.00386
6478.42172	0.00385
6476.49304	0.00386
6474.56437	0.00389
6472.63569	0.00390
6470.70702	0.00390
6468.77834	0.00391
6466.84966	0.00394
6464.92099	0.00396
6462.99231	0.00395
6461.06364	0.00395
6459.13496	0.00397
6457.20629	0.00397
6455.27761	0.00397
6453.34893	0.00398
6451.42026	0.00399
6449.49158	0.00399
6447.56291	0.00400
6445.63423	0.00402
6443.70556	0.00403
6441.77688	0.00404
6439.84820	0.00405
6437.91953	0.00404
6435.99085	0.00404
6434.06218	0.00406
6432.13350	0.00407
6430.20483	0.00407
6428.27615	0.00409
6426.34747	0.00411
6424.41880	0.00413
6422.49012	0.00414
6420.56145	0.00413
6418.63277	0.00413
6416.70410	0.00415
6414.77542	0.00417
6412.84674	0.00418
6410.91807	0.00419
6408.98939	0.00420
6407.06072	0.00421
6405.13204	0.00421
6403.20337	0.00421
6401.27469	0.00422
6399.34601	0.00425
6397.41734	0.00424
6395.48866	0.00422
6393.55999	0.00422
6391.63131	0.00423
6389.70264	0.00425
6387.77396	0.00427
6385.84528	0.00428
6383.91661	0.00429
6381.98793	0.00430
6380.05926	0.00432
6378.13058	0.00433
6376.20191	0.00434
6374.27323	0.00434
6372.34455	0.00433
6370.41588	0.00433
6368.48720	0.00436
6366.55853	0.00438
6364.62985	0.00439
6362.70118	0.00440
6360.77250	0.00441
6358.84382	0.00442
6356.91515	0.00441
6354.98647	0.00441
6353.05780	0.00442
6351.12912	0.00444
6349.20045	0.00445
6347.27177	0.00447
6345.34309	0.00449
6343.41442	0.00449
6341.48574	0.00450
6339.55707	0.00452
6337.62839	0.00455
6335.69972	0.00456
6333.77104	0.00457
6331.84236	0.00458
6329.91369	0.00458
6327.98501	0.00457
6326.05634	0.00456
6324.12766	0.00456
6322.19899	0.00457
6320.27031	0.00457
6318.34163	0.00457
6316.41296	0.00458
6314.48428	0.00461
6312.55561	0.00463
6310.62693	0.00464
6308.69826	0.00464
6306.76958	0.00465
6304.84090	0.00468
6302.91223	0.00470
6300.98355	0.00470
6299.05488	0.00472
6297.12620	0.00475
6295.19753	0.00476
6293.26885	0.00475
6291.34017	0.00474
6289.41150	0.00474
6287.48282	0.00475
6285.55415	0.00475
6283.62547	0.00476
6281.69680	0.00476
6279.76812	0.00477
6277.83944	0.00479
6275.91077	0.00479
6273.98209	0.00479
6272.05342	0.00479
6270.12474	0.00481
6268.19607	0.00483
6266.26739	0.00485
6264.33871	0.00486
6262.41004	0.00488
6260.48136	0.00489
6258.55269	0.00489
6256.62401	0.00490
6254.69534	0.00493
6252.76666	0.00495
6250.83798	0.00497
6248.90931	0.00497
6246.98063	0.00498
6245.05196	0.00498
6243.12328	0.00499
6241.19461	0.00499
6239.26593	0.00499
6237.33725	0.00501
6235.40858	0.00505
6233.47990	0.00508
6231.55123	0.00509
6229.62255	0.00509
6227.69388	0.00510
6225.76520	0.00510
6223.83652	0.00509
6221.90785	0.00509
6219.97917	0.00510
6218.05050	0.00513
6216.12182	0.00514
6214.19315	0.00514
6212.26447	0.00515
6210.33579	0.00514
6208.40712	0.00516
6206.47844	0.00518
6204.54977	0.00520
6202.62109	0.00521
6200.69242	0.00521
6198.76374	0.00521
6196.83506	0.00521
6194.90639	0.00522
6192.97771	0.00524
6191.04904	0.00527
6189.12036	0.00529
6187.19169	0.00530
6185.26301	0.00530
6183.33433	0.00531
6181.40566	0.00532
6179.47698	0.00533
6177.54831	0.00534
6175.61963	0.00536
6173.69096	0.00538
6171.76228	0.00539
6169.83360	0.00540
6167.90493	0.00540
6165.97625	0.00541
6164.04758	0.00542
6162.11890	0.00542
6160.19023	0.00544
6158.26155	0.00547
6156.33287	0.00549
6154.40420	0.00550
6152.47552	0.00550
6150.54685	0.00550
6148.61817	0.00550
6146.68950	0.00551
6144.76082	0.00553
6142.83214	0.00555
6140.90347	0.00555
6138.97479	0.00556
6137.04612	0.00557
6135.11744	0.00559
6133.18877	0.00560
6131.26009	0.00563
6129.33141	0.00563
6127.40274	0.00563
6125.47406	0.00565
6123.54539	0.00567
6121.61671	0.00568
6119.68804	0.00569
6117.75936	0.00570
6115.83068	0.00572
6113.90201	0.00573
6111.97333	0.00574
6110.04466	0.00575
6108.11598	0.00574
6106.18731	0.00575
6104.25863	0.00578
6102.32995	0.00581
6100.40128	0.00584
6098.47260	0.00585
6096.54393	0.00584
6094.61525	0.00584
6092.68658	0.00585
6090.75790	0.00587
6088.82922	0.00589
6086.90055	0.00591
6084.97187	0.00592
6083.04320	0.00594
6081.11452	0.00594
6079.18585	0.00595
6077.25717	0.00597
6075.32849	0.00599
6073.39982	0.00601
6071.47114	0.00600
6069.54247	0.00600
6067.61379	0.00603
6065.68512	0.00605
6063.75644	0.00606
6061.82776	0.00607
6059.89909	0.00609
6057.97041	0.00610
6056.04174	0.00612
6054.11306	0.00615
6052.18439	0.00616
6050.25571	0.00616
6048.32703	0.00616
6046.39836	0.00617
6044.46968	0.00620
6042.54101	0.00622
6040.61233	0.00623
6038.68366	0.00622
6036.75498	0.00623
6034.82630	0.00625
6032.89763	0.00627
6030.96895	0.00628
6029.04028	0.00630
6027.11160	0.00631
6025.18293	0.00630
6023.25425	0.00629
6021.32557	0.00630
6019.39690	0.00633
6017.46822	0.00636
6015.53955	0.00637
6013.61087	0.00638
6011.68220	0.00641
6009.75352	0.00642
6007.82484	0.00643
6005.89617	0.00642
6003.96749	0.00643
6002.03882	0.00645
6000.11014	0.00646
5998.18147	0.00646
5996.25279	0.00647
5994.32411	0.00648
5992.39544	0.00649
5990.46676	0.00652
5988.53809	0.00654
5986.60941	0.00657
5984.68074	0.00658
5982.75206	0.00659
5980.82338	0.00660
5978.89471	0.00661
5976.96603	0.00662
5975.03736	0.00663
5973.10868	0.00664
5971.18001	0.00667
5969.25133	0.00670
5967.32265	0.00672
5965.39398	0.00674
5963.46530	0.00675
5961.53663	0.00675
5959.60795	0.00676
5957.67928	0.00678
5955.75060	0.00679
5953.82192	0.00680
5951.89325	0.00681
5949.96457	0.00683
5948.03590	0.00685
5946.10722	0.00686
5944.17855	0.00687
5942.24987	0.00689
5940.32119	0.00690
5938.39252	0.00691
5936.46384	0.00694
5934.53517	0.00696
5932.60649	0.00697
5930.67782	0.00698
5928.74914	0.00699
5926.82046	0.00700
5924.89179	0.00701
5922.96311	0.00702
5921.03444	0.00703
5919.10576	0.00704
5917.17709	0.00705
5915.24841	0.00708
5913.31973	0.00711
5911.39106	0.00712
5909.46238	0.00712
5907.53371	0.00712
5905.60503	0.00714
5903.67636	0.00717
5901.74768	0.00719
5899.81900	0.00720
5897.89033	0.00721
5895.96165	0.00722
5894.03298	0.00724
5892.10430	0.00725
5890.17563	0.00727
5888.24695	0.00728
5886.31827	0.00729
5884.38960	0.00731
5882.46092	0.00734
5880.53225	0.00735
5878.60357	0.00736
5876.67490	0.00738
5874.74622	0.00741
5872.81755	0.00742
5870.88887	0.00743
5868.96019	0.00744
5867.03152	0.00746
5865.10284	0.00747
5863.17417	0.00748
5861.24549	0.00750
5859.31682	0.00751
5857.38814	0.00753
5855.45946	0.00755
5853.53079	0.00758
5851.60211	0.00759
5849.67344	0.00759
5847.74476	0.00759
5845.81609	0.00762
5843.88741	0.00764
5841.95873	0.00766
5840.03006	0.00767
5838.10138	0.00767
5836.17271	0.00767
5834.24403	0.00769
5832.31536	0.00771
5830.38668	0.00773
5828.45800	0.00773
5826.52933	0.00773
5824.60065	0.00776
5822.67198	0.00779
5820.74330	0.00782
5818.81463	0.00783
5816.88595	0.00784
5814.95727	0.00786
5813.02860	0.00787
5811.09992	0.00789
5809.17125	0.00790
5807.24257	0.00793
5805.31390	0.00794
5803.38522	0.00794
5801.45654	0.00796
5799.52787	0.00798
5797.59919	0.00799
5795.67052	0.00801
5793.74184	0.00802
5791.81317	0.00804
5789.88449	0.00805
5787.95581	0.00807
5786.02714	0.00810
5784.09846	0.00812
5782.16979	0.00814
5780.24111	0.00815
5778.31244	0.00818
5776.38376	0.00820
5774.45508	0.00821
5772.52641	0.00821
5770.59773	0.00822
5768.66906	0.00823
5766.74038	0.00826
5764.81171	0.00829
5762.88303	0.00831
5760.95435	0.00832
5759.02568	0.00831
5757.09700	0.00831
5755.16833	0.00832
5753.23965	0.00836
5751.31098	0.00840
5749.38230	0.00840
5747.45362	0.00841
5745.52495	0.00842
5743.59627	0.00845
5741.66760	0.00848
5739.73892	0.00851
5737.81025	0.00852
5735.88157	0.00853
5733.95289	0.00853
5732.02422	0.00855
5730.09554	0.00857
5728.16687	0.00861
5726.23819	0.00863
5724.30952	0.00865
5722.38084	0.00867
5720.45216	0.00867
5718.52349	0.00868
5716.59481	0.00870
5714.66614	0.00872
5712.73746	0.00875
5710.80879	0.00877
5708.88011	0.00878
5706.95143	0.00877
5705.02276	0.00878
5703.09408	0.00881
5701.16541	0.00885
5699.23673	0.00887
5697.30806	0.00887
5695.37938	0.00887
5693.45070	0.00888
5691.52203	0.00890
5689.59335	0.00893
5687.66468	0.00896
5685.73600	0.00897
5683.80733	0.00898
5681.87865	0.00900
5679.94997	0.00902
5678.02130	0.00905
5676.09262	0.00908
5674.16395	0.00910
5672.23527	0.00911
5670.30660	0.00911
5668.37792	0.00913
5666.44924	0.00916
5664.52057	0.00917
5662.59189	0.00916
5660.66322	0.00917
5658.73454	0.00920
5656.80587	0.00925
5654.87719	0.00928
5652.94851	0.00931
5651.01984	0.00931
5649.09116	0.00932
5647.16249	0.00935
5645.23381	0.00938
5643.30514	0.00940
5641.37646	0.00941
5639.44778	0.00942
5637.51911	0.00943
5635.59043	0.00945
5633.66176	0.00947
5631.73308	0.00949
5629.80441	0.00950
5627.87573	0.00951
5625.94705	0.00953
5624.01838	0.00955
5622.08970	0.00957
5620.16103	0.00961
5618.23235	0.00964
5616.30368	0.00966
5614.37500	0.00968
5612.44632	0.00969
5610.51765	0.00970
5608.58897	0.00972
5606.66030	0.00974
5604.73162	0.00977
5602.80295	0.00978
5600.87427	0.00980
5598.94559	0.00983
5597.01692	0.00985
5595.08824	0.00986
5593.15957	0.00987
5591.23089	0.00989
5589.30222	0.00992
5587.37354	0.00994
5585.44486	0.00995
5583.51619	0.00997
5581.58751	0.00998
5579.65884	0.00999
5577.73016	0.01001
5575.80149	0.01002
5573.87281	0.01003
5571.94413	0.01006
5570.01546	0.01011
5568.08678	0.01015
5566.15811	0.01016
5564.22943	0.01016
5562.30076	0.01019
5560.37208	0.01021
5558.44340	0.01024
5556.51473	0.01025
5554.58605	0.01027
5552.65738	0.01029
5550.72870	0.01032
5548.80003	0.01035
5546.87135	0.01038
5544.94267	0.01038
5543.01400	0.01038
5541.08532	0.01040
5539.15665	0.01040
5537.22797	0.01041
5535.29930	0.01043
5533.37062	0.01045
5531.44194	0.01047
5529.51327	0.01050
5527.58459	0.01054
5525.65592	0.01057
5523.72724	0.01057
5521.79857	0.01059
5519.86989	0.01060
5517.94121	0.01061
5516.01254	0.01063
5514.08386	0.01066
5512.15519	0.01068
5510.22651	0.01069
5508.29784	0.01070
5506.36916	0.01072
5504.44048	0.01075
5502.51181	0.01079
5500.58313	0.01081
5498.65446	0.01082
5496.72578	0.01085
5494.79711	0.01087
5492.86843	0.01088
5490.93975	0.01090
5489.01108	0.01091
5487.08240	0.01094
5485.15373	0.01098
5483.22505	0.01099
5481.29638	0.01101
5479.36770	0.01103
5477.43902	0.01103
5475.51035	0.01104
5473.58167	0.01107
5471.65300	0.01111
5469.72432	0.01113
5467.79565	0.01115
5465.86697	0.01119
5463.93829	0.01124
5462.00962	0.01126
5460.08094	0.01126
5458.15227	0.01125
5456.22359	0.01124
5454.29492	0.01125
5452.36624	0.01129
5450.43756	0.01132
5448.50889	0.01134
5446.58021	0.01136
5444.65154	0.01137
5442.72286	0.01140
5440.79419	0.01145
5438.86551	0.01150
5436.93683	0.01152
5435.00816	0.01153
5433.07948	0.01153
5431.15081	0.01153
5429.22213	0.01154
5427.29346	0.01158
5425.36478	0.01163
5423.43610	0.01167
5421.50743	0.01169
5419.57875	0.01169
5417.65008	0.01169
5415.72140	0.01170
5413.79273	0.01172
5411.86405	0.01175
5409.93537	0.01177
5408.00670	0.01179
5406.07802	0.01181
5404.14935	0.01184
5402.22067	0.01188
5400.29200	0.01190
5398.36332	0.01190
5396.43464	0.01191
5394.50597	0.01195
5392.57729	0.01199
5390.64862	0.01201
5388.71994	0.01203
5386.79127	0.01205
5384.86259	0.01207
5382.93391	0.01208
5381.00524	0.01210
5379.07656	0.01214
5377.14789	0.01217
5375.21921	0.01220
5373.29054	0.01223
5371.36186	0.01225
5369.43318	0.01226
5367.50451	0.01226
5365.57583	0.01228
5363.64716	0.01231
5361.71848	0.01234
5359.78981	0.01237
5357.86113	0.01241
5355.93245	0.01243
5354.00378	0.01245
5352.07510	0.01246
5350.14643	0.01247
5348.21775	0.01248
5346.28908	0.01249
5344.36040	0.01251
5342.43172	0.01253
5340.50305	0.01255
5338.57437	0.01258
5336.64570	0.01261
5334.71702	0.01265
5332.78835	0.01269
5330.85967	0.01272
5328.93099	0.01272
5327.00232	0.01272
5325.07364	0.01276
5323.14497	0.01278
5321.21629	0.01280
5319.28762	0.01283
5317.35894	0.01287
5315.43026	0.01290
5313.50159	0.01293
5311.57291	0.01294
5309.64424	0.01295
5307.71556	0.01298
5305.78689	0.01300
5303.85821	0.01301
5301.92953	0.01303
5300.00086	0.01304
5298.07218	0.01306
5296.14351	0.01309
5294.21483	0.01313
5292.28616	0.01316
5290.35748	0.01319
5288.42880	0.01321
5286.50013	0.01323
5284.57145	0.01325
5282.64278	0.01326
5280.71410	0.01327
5278.78543	0.01331
5276.85675	0.01336
5274.92807	0.01340
5272.99940	0.01340
5271.07072	0.01340
5269.14205	0.01343
5267.21337	0.01345
5265.28470	0.01346
5263.35602	0.01348
5261.42734	0.01351
5259.49867	0.01354
5257.56999	0.01357
5255.64132	0.01359
5253.71264	0.01360
5251.78397	0.01361
5249.85529	0.01363
5247.92661	0.01365
5245.99794	0.01369
5244.06926	0.01371
5242.14059	0.01372
5240.21191	0.01376
5238.28324	0.01380
5236.35456	0.01382
5234.42588	0.01384
5232.49721	0.01387
5230.56853	0.01390
5228.63986	0.01392
5226.71118	0.01394
5224.78251	0.01397
5222.85383	0.01399
5220.92515	0.01402
5218.99648	0.01406
5217.06780	0.01410
5215.13913	0.01411
5213.21045	0.01411
5211.28178	0.01412
5209.35310	0.01415
5207.42442	0.01418
5205.49575	0.01421
5203.56707	0.01426
5201.63840	0.01429
5199.70972	0.01432
5197.78105	0.01433
5195.85237	0.01434
5193.92369	0.01436
5191.99502	0.01439
5190.06634	0.01442
5188.13767	0.01443
5186.20899	0.01445
5184.28032	0.01448
5182.35164	0.01452
5180.42296	0.01455
5178.49429	0.01457
5176.56561	0.01458
5174.63694	0.01459
5172.70826	0.01462
5170.77959	0.01465
5168.85091	0.01468
5166.92223	0.01470
5164.99356	0.01471
5163.06488	0.01472
5161.13621	0.01475
5159.20753	0.01479
5157.27886	0.01483
5155.35018	0.01487
5153.42150	0.01490
5151.49283	0.01491
5149.56415	0.01492
5147.63548	0.01494
5145.70680	0.01497
5143.77813	0.01502
5141.84945	0.01504
5139.92077	0.01504
5137.99210	0.01506
5136.06342	0.01509
5134.13475	0.01512
5132.20607	0.01515
5130.27740	0.01517
5128.34872	0.01518
5126.42004	0.01520
5124.49137	0.01524
5122.56269	0.01526
5120.63402	0.01527
5118.70534	0.01529
5116.77667	0.01533
5114.84799	0.01537
5112.91931	0.01541
5110.99064	0.01545
5109.06196	0.01548
5107.13329	0.01549
5105.20461	0.01551
5103.27594	0.01555
5101.34726	0.01558
5099.41858	0.01560
5097.48991	0.01561
5095.56123	0.01565
5093.63256	0.01568
5091.70388	0.01572
5089.77521	0.01574
5087.84653	0.01576
5085.91785	0.01576
5083.98918	0.01578
5082.06050	0.01581
5080.13183	0.01585
5078.20315	0.01588
5076.27448	0.01591
5074.34580	0.01592
5072.41712	0.01593
5070.48845	0.01596
5068.55977	0.01599
5066.63110	0.01602
5064.70242	0.01604
5062.77375	0.01607
5060.84507	0.01609
5058.91639	0.01612
5056.98772	0.01616
5055.05904	0.01619
5053.13037	0.01619
5051.20169	0.01619
5049.27302	0.01622
5047.34434	0.01626
5045.41566	0.01630
5043.48699	0.01631
5041.55831	0.01632
5039.62964	0.01635
5037.70096	0.01640
5035.77229	0.01643
5033.84361	0.01647
5031.91493	0.01650
5029.98626	0.01652
5028.05758	0.01655
5026.12891	0.01658
5024.20023	0.01660
5022.27156	0.01661
5020.34288	0.01666
5018.41420	0.01669
5016.48553	0.01670
5014.55685	0.01671
5012.62818	0.01674
5010.69950	0.01679
5008.77083	0.01684
5006.84215	0.01687
5004.91347	0.01688
5002.98480	0.01689
5001.05612	0.01691
4999.12745	0.01695
4997.19877	0.01699
4995.27010	0.01703
4993.34142	0.01703
4991.41274	0.01704
4989.48407	0.01708
4987.55539	0.01712
4985.62672	0.01716
4983.69804	0.01719
4981.76937	0.01723
4979.84069	0.01725
4977.91201	0.01726
4975.98334	0.01729
4974.05466	0.01732
4972.12599	0.01735
4970.19731	0.01738
4968.26864	0.01742
4966.33996	0.01745
4964.41128	0.01749
4962.48261	0.01751
4960.55393	0.01752
4958.62526	0.01755
4956.69658	0.01758
4954.76791	0.01759
4952.83923	0.01761
4950.91055	0.01765
4948.98188	0.01768
4947.05320	0.01772
4945.12453	0.01775
4943.19585	0.01778
4941.26718	0.01781
4939.33850	0.01785
4937.40982	0.01788
4935.48115	0.01791
4933.55247	0.01792
4931.62380	0.01793
4929.69512	0.01795
4927.76645	0.01797
4925.83777	0.01797
4923.90909	0.01799
4921.98042	0.01804
4920.05174	0.01810
4918.12307	0.01814
4916.19439	0.01817
4914.26572	0.01820
4912.33704	0.01823
4910.40836	0.01827
4908.47969	0.01831
4906.55101	0.01833
4904.62234	0.01834
4902.69366	0.01834
4900.76499	0.01835
4898.83631	0.01838
4896.90763	0.01842
4894.97896	0.01845
4893.05028	0.01848
4891.12161	0.01851
4889.19293	0.01856
4887.26426	0.01859
4885.33558	0.01861
4883.40690	0.01863
4881.47823	0.01866
4879.54955	0.01869
4877.62088	0.01872
4875.69220	0.01876
4873.76353	0.01879
4871.83485	0.01882
4869.90617	0.01884
4867.97750	0.01888
4866.04882	0.01892
4864.12015	0.01894
4862.19147	0.01896
4860.26280	0.01899
4858.33412	0.01903
4856.40544	0.01907
4854.47677	0.01910
4852.54809	0.01911
4850.61942	0.01914
4848.69074	0.01918
4846.76207	0.01921
4844.83339	0.01924
4842.90471	0.01928
4840.97604	0.01931
4839.04736	0.01934
4837.11869	0.01937
4835.19001	0.01940
4833.26134	0.01943
4831.33266	0.01947
4829.40398	0.01950
4827.47531	0.01952
4825.54663	0.01953
4823.61796	0.01957
4821.68928	0.01961
4819.76061	0.01966
4817.83193	0.01970
4815.90325	0.01974
4813.97458	0.01976
4812.04590	0.01976
4810.11723	0.01978
4808.18855	0.01982
4806.25988	0.01984
4804.33120	0.01987
4802.40252	0.01992
4800.47385	0.01998
4798.54517	0.02003
4796.61650	0.02005
4794.68782	0.02007
4792.75915	0.02009
4790.83047	0.02014
4788.90179	0.02017
4786.97312	0.02018
4785.04444	0.02021
4783.11577	0.02024
4781.18709	0.02026
4779.25842	0.02029
4777.32974	0.02032
4775.40106	0.02035
4773.47239	0.02039
4771.54371	0.02043
4769.61504	0.02049
4767.68636	0.02053
4765.75769	0.02055
4763.82901	0.02057
4761.90033	0.02059
4759.97166	0.02062
4758.04298	0.02065
4756.11431	0.02068
4754.18563	0.02071
4752.25696	0.02076
4750.32828	0.02080
4748.39960	0.02084
4746.47093	0.02087
4744.54225	0.02088
4742.61358	0.02089
4740.68490	0.02092
4738.75623	0.02095
4736.82755	0.02099
4734.89887	0.02103
4732.97020	0.02107
4731.04152	0.02110
4729.11285	0.02114
4727.18417	0.02120
4725.25550	0.02124
4723.32682	0.02124
4721.39814	0.02126
4719.46947	0.02131
4717.54079	0.02135
4715.61212	0.02137
4713.68344	0.02141
4711.75477	0.02145
4709.82609	0.02150
4707.89741	0.02153
4705.96874	0.02155
4704.04006	0.02158
4702.11139	0.02164
4700.18271	0.02169
4698.25404	0.02171
4696.32536	0.02173
4694.39668	0.02176
4692.46801	0.02181
4690.53933	0.02184
4688.61066	0.02186
4686.68198	0.02188
4684.75331	0.02192
4682.82463	0.02196
4680.89595	0.02199
4678.96728	0.02201
4677.03860	0.02204
4675.10993	0.02208
4673.18125	0.02213
4671.25258	0.02219
4669.32390	0.02224
4667.39522	0.02228
4665.46655	0.02230
4663.53787	0.02232
4661.60920	0.02233
4659.68052	0.02237
4657.75185	0.02242
4655.82317	0.02247
4653.89449	0.02251
4651.96582	0.02254
4650.03714	0.02256
4648.10847	0.02261
4646.17979	0.02265
4644.25112	0.02267
4642.32244	0.02268
4640.39376	0.02273
4638.46509	0.02279
4636.53641	0.02284
4634.60774	0.02287
4632.67906	0.02290
4630.75039	0.02294
4628.82171	0.02298
4626.89303	0.02303
4624.96436	0.02307
4623.03568	0.02311
4621.10701	0.02313
4619.17833	0.02315
4617.24966	0.02316
4615.32098	0.02318
4613.39230	0.02322
4611.46363	0.02328
4609.53495	0.02335
4607.60628	0.02339
4605.67760	0.02342
4603.74893	0.02346
4601.82025	0.02351
4599.89157	0.02356
4597.96290	0.02360
4596.03422	0.02364
4594.10555	0.02368
4592.17687	0.02371
4590.24820	0.02375
4588.31952	0.02377
4586.39084	0.02379
4584.46217	0.02384
4582.53349	0.02391
4580.60482	0.02396
4578.67614	0.02400
4576.74747	0.02403
4574.81879	0.02406
4572.89011	0.02410
4570.96144	0.02413
4569.03276	0.02414
4567.10409	0.02415
4565.17541	0.02420
4563.24674	0.02428
4561.31806	0.02435
4559.38938	0.02438
4557.46071	0.02440
4555.53203	0.02445
4553.60336	0.02452
4551.67468	0.02457
4549.74601	0.02460
4547.81733	0.02463
4545.88865	0.02466
4543.95998	0.02470
4542.03130	0.02474
4540.10263	0.02477
4538.17395	0.02480
4536.24528	0.02483
4534.31660	0.02487
4532.38792	0.02491
4530.45925	0.02496
4528.53057	0.02502
4526.60190	0.02509
4524.67322	0.02513
4522.74455	0.02517
4520.81587	0.02521
4518.88719	0.02524
4516.95852	0.02529
4515.02984	0.02535
4513.10117	0.02539
4511.17249	0.02542
4509.24382	0.02545
4507.31514	0.02547
4505.38646	0.02550
4503.45779	0.02554
4501.52911	0.02560
4499.60044	0.02564
4497.67176	0.02567
4495.74309	0.02573
4493.81441	0.02578
4491.88573	0.02583
4489.95706	0.02587
4488.02838	0.02593
4486.09971	0.02599
4484.17103	0.02605
4482.24236	0.02610
4480.31368	0.02614
4478.38500	0.02617
4476.45633	0.02620
4474.52765	0.02622
4472.59898	0.02626
4470.67030	0.02630
4468.74163	0.02633
4466.81295	0.02638
4464.88427	0.02644
4462.95560	0.02651
4461.02692	0.02657
4459.09825	0.02663
4457.16957	0.02670
4455.24090	0.02674
4453.31222	0.02674
4451.38354	0.02673
4449.45487	0.02675
4447.52619	0.02681
4445.59752	0.02686
4443.66884	0.02691
4441.74017	0.02696
4439.81149	0.02702
4437.88281	0.02708
4435.95414	0.02714
4434.02546	0.02720
4432.09679	0.02726
4430.16811	0.02731
4428.23944	0.02736
4426.31076	0.02740
4424.38208	0.02743
4422.45341	0.02747
4420.52473	0.02752
4418.59606	0.02758
4416.66738	0.02765
4414.73871	0.02769
4412.81003	0.02773
4410.88135	0.02778
4408.95268	0.02784
4407.02400	0.02789
4405.09533	0.02793
4403.16665	0.02798
4401.23798	0.02803
4399.30930	0.02808
4397.38062	0.02813
4395.45195	0.02819
4393.52327	0.02825
4391.59460	0.02829
4389.66592	0.02832
4387.73725	0.02837
4385.80857	0.02843
4383.87989	0.02849
4381.95122	0.02854
4380.02254	0.02858
4378.09387	0.02861
4376.16519	0.02866
4374.23652	0.02872
4372.30784	0.02878
4370.37916	0.02882
4368.45049	0.02884
4366.52181	0.02887
4364.59314	0.02893
4362.66446	0.02899
4360.73579	0.02904
4358.80711	0.02909
4356.87843	0.02914
4354.94976	0.02919
4353.02108	0.02926
4351.09241	0.02934
4349.16373	0.02941
4347.23506	0.02945
4345.30638	0.02947
4343.37770	0.02950
4341.44903	0.02956
4339.52035	0.02962
4337.59168	0.02966
4335.66300	0.02972
4333.73433	0.02979
4331.80565	0.02984
4329.87697	0.02987
4327.94830	0.02993
4326.01962	0.03000
4324.09095	0.03006
4322.16227	0.03012
4320.23360	0.03018
4318.30492	0.03023
4316.37624	0.03029
4314.44757	0.03036
4312.51889	0.03042
4310.59022	0.03043
4308.66154	0.03046
4306.73287	0.03053
4304.80419	0.03060
4302.87551	0.03067
4300.94684	0.03073
4299.01816	0.03080
4297.08949	0.03085
4295.16081	0.03087
4293.23214	0.03090
4291.30346	0.03097
4289.37478	0.03106
4287.44611	0.03114
4285.51743	0.03120
4283.58876	0.03127
4281.66008	0.03132
4279.73141	0.03136
4277.80273	0.03141
4275.87405	0.03148
4273.94538	0.03154
4272.01670	0.03159
4270.08803	0.03165
4268.15935	0.03172
4266.23068	0.03178
4264.30200	0.03184
4262.37332	0.03189
4260.44465	0.03194
4258.51597	0.03197
4256.58730	0.03202
4254.65862	0.03206
4252.72995	0.03212
4250.80127	0.03220
4248.87259	0.03229
4246.94392	0.03236
4245.01524	0.03243
4243.08657	0.03248
4241.15789	0.03251
4239.22922	0.03255
4237.30054	0.03260
4235.37186	0.03266
4233.44319	0.03271
4231.51451	0.03278
4229.58584	0.03285
4227.65716	0.03293
4225.72849	0.03301
4223.79981	0.03307
4221.87113	0.03313
4219.94246	0.03316
4218.01378	0.03320
4216.08511	0.03327
4214.15643	0.03334
4212.22776	0.03342
4210.29908	0.03350
4208.37040	0.03358
4206.44173	0.03366
4204.51305	0.03371
4202.58438	0.03374
4200.65570	0.03377
4198.72703	0.03381
4196.79835	0.03389
4194.86968	0.03397
4192.94100	0.03404
4191.01232	0.03411
4189.08365	0.03418
4187.15497	0.03426
4185.22630	0.03433
4183.29762	0.03439
4181.36895	0.03445
4179.44027	0.03450
4177.51159	0.03455
4175.58292	0.03460
4173.65424	0.03466
4171.72557	0.03474
4169.79689	0.03481
4167.86822	0.03486
4165.93954	0.03491
4164.01086	0.03497
4162.08219	0.03505
4160.15351	0.03513
4158.22484	0.03521
4156.29616	0.03527
4154.36749	0.03532
4152.43881	0.03539
4150.51013	0.03548
4148.58146	0.03557
4146.65278	0.03564
4144.72411	0.03570
4142.79543	0.03577
4140.86676	0.03583
4138.93808	0.03589
4137.00940	0.03596
4135.08073	0.03602
4133.15205	0.03608
4131.22338	0.03615
4129.29470	0.03623
4127.36603	0.03631
4125.43735	0.03640
4123.50867	0.03647
4121.58000	0.03652
4119.65132	0.03655
4117.72265	0.03662
4115.79397	0.03669
4113.86530	0.03673
4111.93662	0.03678
4110.00794	0.03685
4108.07927	0.03693
4106.15059	0.03701
4104.22192	0.03708
4102.29324	0.03716
4100.36457	0.03725
4098.43589	0.03733
4096.50721	0.03739
4094.57854	0.03745
4092.64986	0.03750
4090.72119	0.03756
4088.79251	0.03762
4086.86384	0.03769
4084.93516	0.03776
4083.00648	0.03785
4081.07781	0.03794
4079.14913	0.03801
4077.22046	0.03809
4075.29178	0.03817
4073.36311	0.03825
4071.43443	0.03834
4069.50575	0.03844
4067.57708	0.03854
4065.64840	0.03859
4063.71973	0.03862
4061.79105	0.03868
4059.86238	0.03875
4057.93370	0.03884
4056.00502	0.03893
4054.07635	0.03900
4052.14767	0.03907
4050.21900	0.03913
4048.29032	0.03920
4046.36165	0.03926
4044.43297	0.03932
4042.50429	0.03941
4040.57562	0.03950
4038.64694	0.03957
4036.71827	0.03963
4034.78959	0.03970
4032.86092	0.03977
4030.93224	0.03982
4029.00356	0.03989
4027.07489	0.03997
4025.14621	0.04009
4023.21754	0.04021
4021.28886	0.04030
4019.36019	0.04036
4017.43151	0.04041
4015.50283	0.04047
4013.57416	0.04054
4011.64548	0.04063
4009.71681	0.04070
4007.78813	0.04074
4005.85946	0.04081
4003.93078	0.04090
4002.00210	0.04099
4000.07343	0.04109
3998.14475	0.04116
3996.21608	0.04123
3994.28740	0.04132
3992.35873	0.04140
3990.43005	0.04148
3988.50137	0.04155
3986.57270	0.04161
3984.64402	0.04167
3982.71535	0.04174
3980.78667	0.04183
3978.85800	0.04192
3976.92932	0.04201
3975.00064	0.04209
3973.07197	0.04218
3971.14329	0.04227
3969.21462	0.04235
3967.28594	0.04242
3965.35727	0.04249
3963.42859	0.04255
3961.49991	0.04261
3959.57124	0.04270
3957.64256	0.04281
3955.71389	0.04290
3953.78521	0.04297
3951.85654	0.04303
3949.92786	0.04310
3947.99918	0.04320
3946.07051	0.04329
3944.14183	0.04335
3942.21316	0.04342
3940.28448	0.04353
3938.35581	0.04363
3936.42713	0.04370
3934.49845	0.04376
3932.56978	0.04382
3930.64110	0.04390
3928.71243	0.04399
3926.78375	0.04407
3924.85508	0.04415
3922.92640	0.04426
3920.99772	0.04437
3919.06905	0.04443
3917.14037	0.04448
3915.21170	0.04457
3913.28302	0.04469
3911.35435	0.04480
3909.42567	0.04487
3907.49699	0.04488
3905.56832	0.04482
3903.63964	0.04482
3901.71097	0.04492
3899.78229	0.04507
3897.85362	0.04526
3895.92494	0.04544
3893.99626	0.04549
3892.06759	0.04550
3890.13891	0.04558
3888.21024	0.04566
3886.28156	0.04570
3884.35289	0.04578
3882.42421	0.04587
3880.49553	0.04596
3878.56686	0.04610
3876.63818	0.04621
3874.70951	0.04623
3872.78083	0.04620
3870.85216	0.04621
3868.92348	0.04634
3866.99480	0.04654
3865.06613	0.04665
3863.13745	0.04674
3861.20878	0.04690
3859.28010	0.04705
3857.35143	0.04699
3855.42275	0.04676
3853.49407	0.04674
3851.56540	0.04707
3849.63672	0.04744
3847.70805	0.04763
3845.77937	0.04767
3843.85070	0.04767
3841.92202	0.04768
3839.99334	0.04771
3838.06467	0.04780
3836.13599	0.04794
3834.20732	0.04807
3832.27864	0.04819
3830.34997	0.04833
3828.42129	0.04849
3826.49261	0.04861
3824.56394	0.04863
3822.63526	0.04855
3820.70659	0.04856
3818.77791	0.04873
3816.84924	0.04889
3814.92056	0.04901
3812.99188	0.04915
3811.06321	0.04927
3809.13453	0.04932
3807.20586	0.04936
3805.27718	0.04943
3803.34851	0.04947
3801.41983	0.04954
3799.49115	0.04971
3797.56248	0.04990
3795.63380	0.05003
3793.70513	0.05017
3791.77645	0.05032
3789.84778	0.05044
3787.91910	0.05051
3785.99042	0.05056
3784.06175	0.05062
3782.13307	0.05068
3780.20440	0.05072
3778.27572	0.05083
3776.34705	0.05101
3774.41837	0.05115
3772.48969	0.05121
3770.56102	0.05124
3768.63234	0.05129
3766.70367	0.05138
3764.77499	0.05150
3762.84632	0.05163
3760.91764	0.05170
3758.98896	0.05176
3757.06029	0.05182
3755.13161	0.05183
3753.20294	0.05174
3751.27426	0.05164
3749.34559	0.05171
3747.41691	0.05186
3745.48823	0.05196
3743.55956	0.05216
3741.63088	0.05248
3739.70221	0.05263
3737.77353	0.05257
3735.84486	0.05253
3733.91618	0.05266
3731.98750	0.05290
3730.05883	0.05309
3728.13015	0.05318
3726.20148	0.05324
3724.27280	0.05333
3722.34413	0.05346
3720.41545	0.05359
3718.48677	0.05373
3716.55810	0.05384
3714.62942	0.05383
3712.70075	0.05376
3710.77207	0.05386
3708.84340	0.05411
3706.91472	0.05433
3704.98604	0.05443
3703.05737	0.05448
3701.12869	0.05458
3699.20002	0.05474
3697.27134	0.05489
3695.34267	0.05497
3693.41399	0.05498
3691.48531	0.05496
3689.55664	0.05499
3687.62796	0.05514
3685.69929	0.05536
3683.77061	0.05552
3681.84194	0.05560
3679.91326	0.05562
3677.98458	0.05558
3676.05591	0.05554
3674.12723	0.05558
3672.19856	0.05566
3670.26988	0.05579
3668.34121	0.05605
3666.41253	0.05630
3664.48385	0.05644
3662.55518	0.05652
3660.62650	0.05659
3658.69783	0.05662
3656.76915	0.05664
3654.84048	0.05671
3652.91180	0.05670
3650.98312	0.05657
3649.05445	0.05649
3647.12577	0.05662
3645.19710	0.05694
3643.26842	0.05723
3641.33975	0.05738
3639.41107	0.05749
3637.48239	0.05758
3635.55372	0.05767
3633.62504	0.05769
3631.69637	0.05757
3629.76769	0.05743
3627.83902	0.05758
3625.91034	0.05790
3623.98166	0.05809
3622.05299	0.05812
3620.12431	0.05809
3618.19564	0.05810
3616.26696	0.05818
3614.33829	0.05828
3612.40961	0.05839
3610.48093	0.05845
3608.55226	0.05853
3606.62358	0.05867
3604.69491	0.05881
3602.76623	0.05890
3600.83756	0.05899
3598.90888	0.05907
3596.98020	0.05911
3595.05153	0.05916
3593.12285	0.05925
3591.19418	0.05929
3589.26550	0.05926
3587.33683	0.05930
3585.40815	0.05950
3583.47947	0.05969
3581.55080	0.05978
3579.62212	0.05983
3577.69345	0.05991
3575.76477	0.06001
3573.83610	0.06010
3571.90742	0.06016
3569.97874	0.06013
3568.05007	0.06011
3566.12139	0.06022
3564.19272	0.06043
3562.26404	0.06060
3560.33537	0.06070
3558.40669	0.06078
3556.47801	0.06084
3554.54934	0.06090
3552.62066	0.06098
3550.69199	0.06108
3548.76331	0.06114
3546.83464	0.06115
3544.90596	0.06118
3542.97728	0.06128
3541.04861	0.06140
3539.11993	0.06150
3537.19126	0.06157
3535.26258	0.06163
3533.33391	0.06167
3531.40523	0.06168
3529.47655	0.06168
3527.54788	0.06171
3525.61920	0.06177
3523.69053	0.06184
3521.76185	0.06189
3519.83318	0.06195
3517.90450	0.06200
3515.97582	0.06203
3514.04715	0.06205
3512.11847	0.06208
3510.18980	0.06211
3508.26112	0.06214
3506.33245	0.06217
3504.40377	0.06220
3502.47509	0.06226
3500.54642	0.06234
3498.61774	0.06240
3496.68907	0.06244
3494.76039	0.06244
3492.83172	0.06244
3490.90304	0.06245
3488.97436	0.06248
3487.04569	0.06252
3485.11701	0.06256
3483.18834	0.06258
3481.25966	0.06263
3479.33099	0.06270
3477.40231	0.06279
3475.47363	0.06288
3473.54496	0.06297
3471.61628	0.06305
3469.68761	0.06313
3467.75893	0.06321
3465.83026	0.06331
3463.90158	0.06342
3461.97290	0.06354
3460.04423	0.06366
3458.11555	0.06374
3456.18688	0.06381
3454.25820	0.06391
3452.32953	0.06404
3450.40085	0.06413
3448.47217	0.06419
3446.54350	0.06429
3444.61482	0.06443
3442.68615	0.06456
3440.75747	0.06468
3438.82880	0.06482
3436.90012	0.06496
3434.97144	0.06511
3433.04277	0.06528
3431.11409	0.06551
3429.18542	0.06576
3427.25674	0.06598
3425.32807	0.06616
3423.39939	0.06632
3421.47071	0.06649
3419.54204	0.06669
3417.61336	0.06688
3415.68469	0.06704
3413.75601	0.06719
3411.82734	0.06735
3409.89866	0.06751
3407.96998	0.06764
3406.04131	0.06776
3404.11263	0.06791
3402.18396	0.06807
3400.25528	0.06820
3398.32661	0.06832
3396.39793	0.06845
3394.46925	0.06858
3392.54058	0.06872
3390.61190	0.06888
3388.68323	0.06904
3386.75455	0.06918
3384.82588	0.06930
3382.89720	0.06942
3380.96852	0.06956
3379.03985	0.06972
3377.11117	0.06987
3375.18250	0.06998
3373.25382	0.07008
3371.32515	0.07019
3369.39647	0.07033
3367.46779	0.07045
3365.53912	0.07056
3363.61044	0.07070
3361.68177	0.07083
3359.75309	0.07096
3357.82442	0.07109
3355.89574	0.07122
3353.96706	0.07135
3352.03839	0.07147
3350.10971	0.07160
3348.18104	0.07173
3346.25236	0.07187
3344.32369	0.07201
3342.39501	0.07214
3340.46633	0.07225
3338.53766	0.07236
3336.60898	0.07247
3334.68031	0.07260
3332.75163	0.07275
3330.82296	0.07289
3328.89428	0.07302
3326.96560	0.07315
3325.03693	0.07329
3323.10825	0.07340
3321.17958	0.07351
3319.25090	0.07365
3317.32223	0.07379
3315.39355	0.07392
3313.46487	0.07405
3311.53620	0.07418
3309.60752	0.07432
3307.67885	0.07447
3305.75017	0.07461
3303.82150	0.07472
3301.89282	0.07481
3299.96414	0.07489
3298.03547	0.07499
3296.10679	0.07515
3294.17812	0.07531
3292.24944	0.07546
3290.32077	0.07560
3288.39209	0.07575
3286.46341	0.07588
3284.53474	0.07604
3282.60606	0.07622
3280.67739	0.07638
3278.74871	0.07652
3276.82004	0.07664
3274.89136	0.07675
3272.96268	0.07687
3271.03401	0.07702
3269.10533	0.07719
3267.17666	0.07735
3265.24798	0.07748
3263.31931	0.07756
3261.39063	0.07766
3259.46195	0.07781
3257.53328	0.07800
3255.60460	0.07816
3253.67593	0.07828
3251.74725	0.07841
3249.81858	0.07855
3247.88990	0.07871
3245.96122	0.07887
3244.03255	0.07902
3242.10387	0.07915
3240.17520	0.07926
3238.24652	0.07940
3236.31785	0.07954
3234.38917	0.07968
3232.46049	0.07981
3230.53182	0.07993
3228.60314	0.08006
3226.67447	0.08020
3224.74579	0.08034
3222.81712	0.08048
3220.88844	0.08060
3218.95976	0.08075
3217.03109	0.08091
3215.10241	0.08107
3213.17374	0.08121
3211.24506	0.08134
3209.31639	0.08146
3207.38771	0.08156
3205.45903	0.08169
3203.53036	0.08185
3201.60168	0.08202
3199.67301	0.08218
3197.74433	0.08234
3195.81566	0.08253
3193.88698	0.08272
3191.95830	0.08286
3190.02963	0.08297
3188.10095	0.08309
3186.17228	0.08326
3184.24360	0.08343
3182.31493	0.08358
3180.38625	0.08370
3178.45757	0.08381
3176.52890	0.08393
3174.60022	0.08409
3172.67155	0.08427
3170.74287	0.08445
3168.81420	0.08459
3166.88552	0.08471
3164.95684	0.08482
3163.02817	0.08494
3161.09949	0.08511
3159.17082	0.08530
3157.24214	0.08547
3155.31347	0.08559
3153.38479	0.08569
3151.45611	0.08582
3149.52744	0.08597
3147.59876	0.08613
3145.67009	0.08629
3143.74141	0.08643
3141.81274	0.08658
3139.88406	0.08673
3137.95538	0.08689
3136.02671	0.08703
3134.09803	0.08716
3132.16936	0.08729
3130.24068	0.08742
3128.31201	0.08756
3126.38333	0.08773
3124.45465	0.08791
3122.52598	0.08807
3120.59730	0.08819
3118.66863	0.08829
3116.73995	0.08842
3114.81128	0.08856
3112.88260	0.08872
3110.95392	0.08888
3109.02525	0.08901
3107.09657	0.08913
3105.16790	0.08927
3103.23922	0.08944
3101.31055	0.08959
3099.38187	0.08972
3097.45319	0.08986
3095.52452	0.09000
3093.59584	0.09016
3091.66717	0.09031
3089.73849	0.09048
3087.80982	0.09062
3085.88114	0.09075
3083.95246	0.09089
3082.02379	0.09103
3080.09511	0.09120
3078.16644	0.09137
3076.23776	0.09152
3074.30909	0.09165
3072.38041	0.09179
3070.45173	0.09193
3068.52306	0.09207
3066.59438	0.09218
3064.66571	0.09230
3062.73703	0.09246
3060.80836	0.09263
3058.87968	0.09278
3056.95100	0.09290
3055.02233	0.09305
3053.09365	0.09319
3051.16498	0.09330
3049.23630	0.09344
3047.30763	0.09361
3045.37895	0.09379
3043.45027	0.09395
3041.52160	0.09407
3039.59292	0.09420
3037.66425	0.09434
3035.73557	0.09448
3033.80690	0.09462
3031.87822	0.09476
3029.94954	0.09491
3028.02087	0.09505
3026.09219	0.09519
3024.16352	0.09535
3022.23484	0.09551
3020.30617	0.09566
3018.37749	0.09579
3016.44881	0.09589
3014.52014	0.09602
3012.59146	0.09619
3010.66279	0.09636
3008.73411	0.09650
3006.80544	0.09662
3004.87676	0.09675
3002.94808	0.09689
3001.01941	0.09703
2999.09073	0.09717
2997.16206	0.09731
2995.23338	0.09744
2993.30471	0.09757
2991.37603	0.09769
2989.44735	0.09782
2987.51868	0.09793
2985.59000	0.09804
2983.66133	0.09814
2981.73265	0.09823
2979.80398	0.09830
2977.87530	0.09836
2975.94662	0.09840
2974.01795	0.09843
2972.08927	0.09843
2970.16060	0.09840
2968.23192	0.09839
2966.30325	0.09839
2964.37457	0.09844
2962.44589	0.09855
2960.51722	0.09869
2958.58854	0.09882
2956.65987	0.09897
2954.73119	0.09916
2952.80252	0.09938
2950.87384	0.09958
2948.94516	0.09974
2947.01649	0.09986
2945.08781	0.09995
2943.15914	0.10003
2941.23046	0.10008
2939.30179	0.10011
2937.37311	0.10009
2935.44443	0.10005
2933.51576	0.10001
2931.58708	0.10000
2929.65841	0.10000
2927.72973	0.10000
2925.80106	0.10000
2923.87238	0.10000
2921.94370	0.10002
2920.01503	0.10008
2918.08635	0.10023
2916.15768	0.10051
2914.22900	0.10096
2912.30033	0.10149
2910.37165	0.10193
2908.44297	0.10227
2906.51430	0.10256
2904.58562	0.10282
2902.65695	0.10306
2900.72827	0.10330
2898.79960	0.10351
2896.87092	0.10370
2894.94224	0.10390
2893.01357	0.10412
2891.08489	0.10434
2889.15622	0.10453
2887.22754	0.10470
2885.29887	0.10490
2883.37019	0.10511
2881.44151	0.10528
2879.51284	0.10541
2877.58416	0.10552
2875.65549	0.10562
2873.72681	0.10573
2871.79814	0.10585
2869.86946	0.10598
2867.94078	0.10613
2866.01211	0.10627
2864.08343	0.10634
2862.15476	0.10639
2860.22608	0.10644
2858.29741	0.10646
2856.36873	0.10646
2854.44005	0.10645
2852.51138	0.10645
2850.58270	0.10653
2848.65403	0.10679
2846.72535	0.10720
2844.79668	0.10769
2842.86800	0.10818
2840.93932	0.10857
2839.01065	0.10884
2837.08197	0.10906
2835.15330	0.10927
2833.22462	0.10946
2831.29595	0.10962
2829.36727	0.10980
2827.43859	0.10999
2825.50992	0.11017
2823.58124	0.11036
2821.65257	0.11054
2819.72389	0.11069
2817.79522	0.11083
2815.86654	0.11097
2813.93786	0.11113
2812.00919	0.11130
2810.08051	0.11148
2808.15184	0.11166
2806.22316	0.11183
2804.29449	0.11198
2802.36581	0.11212
2800.43713	0.11229
2798.50846	0.11247
2796.57978	0.11265
2794.65111	0.11282
2792.72243	0.11298
2790.79376	0.11313
2788.86508	0.11326
2786.93640	0.11341
2785.00773	0.11361
2783.07905	0.11381
2781.15038	0.11396
2779.22170	0.11409
2777.29303	0.11423
2775.36435	0.11439
2773.43567	0.11454
2771.50700	0.11469
2769.57832	0.11486
2767.64965	0.11501
2765.72097	0.11516
2763.79230	0.11531
2761.86362	0.11547
2759.93494	0.11563
2758.00627	0.11579
2756.07759	0.11593
2754.14892	0.11607
2752.22024	0.11623
2750.29157	0.11640
2748.36289	0.11657
2746.43421	0.11674
2744.50554	0.11691
2742.57686	0.11706
2740.64819	0.11719
2738.71951	0.11731
2736.79084	0.11744
2734.86216	0.11759
2732.93348	0.11773
2731.00481	0.11788
2729.07613	0.11803
2727.14746	0.11819
2725.21878	0.11832
2723.29011	0.11846
2721.36143	0.11860
2719.43275	0.11875
2717.50408	0.11890
2715.57540	0.11906
2713.64673	0.11921
2711.71805	0.11935
2709.78938	0.11952
2707.86070	0.11967
2705.93202	0.11981
2704.00335	0.11994
2702.07467	0.12007
2700.14600	0.12021
2698.21732	0.12037
2696.28865	0.12054
2694.35997	0.12072
2692.43129	0.12088
2690.50262	0.12102
2688.57394	0.12115
2686.64527	0.12128
2684.71659	0.12142
2682.78792	0.12157
2680.85924	0.12173
2678.93056	0.12189
2677.00189	0.12204
2675.07321	0.12219
2673.14454	0.12235
2671.21586	0.12251
2669.28719	0.12265
2667.35851	0.12280
2665.42983	0.12295
2663.50116	0.12309
2661.57248	0.12321
2659.64381	0.12334
2657.71513	0.12349
2655.78646	0.12365
2653.85778	0.12382
2651.92910	0.12397
2650.00043	0.12411
2648.07175	0.12429
2646.14308	0.12450
2644.21440	0.12468
2642.28573	0.12481
2640.35705	0.12493
2638.42837	0.12507
2636.49970	0.12523
2634.57102	0.12540
2632.64235	0.12557
2630.71367	0.12572
2628.78500	0.12588
2626.85632	0.12603
2624.92764	0.12621
2622.99897	0.12639
2621.07029	0.12656
2619.14162	0.12669
2617.21294	0.12685
2615.28427	0.12702
2613.35559	0.12719
2611.42691	0.12734
2609.49824	0.12750
2607.56956	0.12766
2605.64089	0.12780
2603.71221	0.12796
2601.78354	0.12814
2599.85486	0.12830
2597.92618	0.12846
2595.99751	0.12862
2594.06883	0.12881
2592.14016	0.12899
2590.21148	0.12915
2588.28281	0.12927
2586.35413	0.12940
2584.42545	0.12958
2582.49678	0.12977
2580.56810	0.12993
2578.63943	0.13006
2576.71075	0.13021
2574.78208	0.13037
2572.85340	0.13054
2570.92472	0.13072
2568.99605	0.13089
2567.06737	0.13102
2565.13870	0.13113
2563.21002	0.13125
2561.28135	0.13141
2559.35267	0.13162
2557.42399	0.13184
2555.49532	0.13199
2553.56664	0.13211
2551.63797	0.13225
2549.70929	0.13239
2547.78062	0.13255
2545.85194	0.13271
2543.92326	0.13286
2541.99459	0.13300
2540.06591	0.13313
2538.13724	0.13327
2536.20856	0.13341
2534.27989	0.13357
2532.35121	0.13376
2530.42253	0.13392
2528.49386	0.13406
2526.56518	0.13420
2524.63651	0.13436
2522.70783	0.13453
2520.77916	0.13471
2518.85048	0.13489
2516.92181	0.13505
2514.99313	0.13519
2513.06445	0.13532
2511.13578	0.13548
2509.20710	0.13566
2507.27843	0.13586
2505.34975	0.13608
2503.42108	0.13627
2501.49240	0.13642
2499.56372	0.13655
2497.63505	0.13672
2495.70637	0.13689
2493.77770	0.13705
2491.84902	0.13721
2489.92035	0.13740
2487.99167	0.13762
2486.06299	0.13785
2484.13432	0.13804
2482.20564	0.13821
2480.27697	0.13838
2478.34829	0.13853
2476.41962	0.13866
2474.49094	0.13880
2472.56226	0.13900
2470.63359	0.13919
2468.70491	0.13936
2466.77624	0.13955
2464.84756	0.13974
2462.91889	0.13991
2460.99021	0.14008
2459.06153	0.14025
2457.13286	0.14042
2455.20418	0.14056
2453.27551	0.14066
2451.34683	0.14079
2449.41816	0.14100
2447.48948	0.14121
2445.56080	0.14136
2443.63213	0.14149
2441.70345	0.14163
2439.77478	0.14179
2437.84610	0.14196
2435.91743	0.14213
2433.98875	0.14229
2432.06007	0.14249
2430.13140	0.14269
2428.20272	0.14285
2426.27405	0.14299
2424.34537	0.14311
2422.41670	0.14327
2420.48802	0.14345
2418.55934	0.14363
2416.63067	0.14380
2414.70199	0.14396
2412.77332	0.14413
2410.84464	0.14431
2408.91597	0.14450
2406.98729	0.14467
2405.05861	0.14480
2403.12994	0.14494
2401.20126	0.14510
2399.27259	0.14526
2397.34391	0.14542
2395.41524	0.14560
2393.48656	0.14580
2391.55788	0.14598
2389.62921	0.14612
2387.70053	0.14627
2385.77186	0.14640
2383.84318	0.14652
2381.91451	0.14661
2379.98583	0.14673
2378.05715	0.14686
2376.12848	0.14695
2374.19980	0.14698
2372.27113	0.14700
2370.34245	0.14703
2368.41378	0.14707
2366.48510	0.14717
2364.55642	0.14730
2362.62775	0.14741
2360.69907	0.14751
2358.77040	0.14767
2356.84172	0.14792
2354.91305	0.14823
2352.98437	0.14856
2351.05569	0.14890
2349.12702	0.14917
2347.19834	0.14928
2345.26967	0.14929
2343.34099	0.14933
2341.41232	0.14944
2339.48364	0.14959
2337.55496	0.14973
2335.62629	0.14985
2333.69761	0.14997
2331.76894	0.15012
2329.84026	0.15031
2327.91159	0.15053
2325.98291	0.15076
2324.05423	0.15100
2322.12556	0.15126
2320.19688	0.15150
2318.26821	0.15169
2316.33953	0.15191
2314.41086	0.15220
2312.48218	0.15246
2310.55350	0.15265
2308.62483	0.15282
2306.69615	0.15299
2304.76748	0.15317
2302.83880	0.15336
2300.91013	0.15356
2298.98145	0.15377
2297.05277	0.15396
2295.12410	0.15410
2293.19542	0.15425
2291.26675	0.15445
2289.33807	0.15464
2287.40940	0.15481
2285.48072	0.15498
2283.55204	0.15513
2281.62337	0.15526
2279.69469	0.15541
2277.76602	0.15558
2275.83734	0.15576
2273.90867	0.15594
2271.97999	0.15608
2270.05131	0.15619
2268.12264	0.15635
2266.19396	0.15654
2264.26529	0.15675
2262.33661	0.15696
2260.40794	0.15714
2258.47926	0.15728
2256.55058	0.15741
2254.62191	0.15758
2252.69323	0.15777
2250.76456	0.15794
2248.83588	0.15809
2246.90721	0.15825
2244.97853	0.15842
2243.04985	0.15857
2241.12118	0.15873
2239.19250	0.15889
2237.26383	0.15906
2235.33515	0.15925
2233.40648	0.15943
2231.47780	0.15957
2229.54912	0.15973
2227.62045	0.15992
2225.69177	0.16009
2223.76310	0.16026
2221.83442	0.16043
2219.90575	0.16062
2217.97707	0.16079
2216.04839	0.16092
2214.11972	0.16106
2212.19104	0.16123
2210.26237	0.16140
2208.33369	0.16158
2206.40502	0.16174
2204.47634	0.16186
2202.54766	0.16197
2200.61899	0.16211
2198.69031	0.16229
2196.76164	0.16247
2194.83296	0.16265
2192.90429	0.16281
2190.97561	0.16296
2189.04693	0.16309
2187.11826	0.16325
2185.18958	0.16342
2183.26091	0.16360
2181.33223	0.16379
2179.40356	0.16399
2177.47488	0.16417
2175.54620	0.16432
2173.61753	0.16446
2171.68885	0.16460
2169.76018	0.16476
2167.83150	0.16494
2165.90283	0.16513
2163.97415	0.16531
2162.04547	0.16545
2160.11680	0.16558
2158.18812	0.16577
2156.25945	0.16599
2154.33077	0.16615
2152.40210	0.16628
2150.47342	0.16642
2148.54474	0.16655
2146.61607	0.16670
2144.68739	0.16690
2142.75872	0.16711
2140.83004	0.16732
2138.90137	0.16749
2136.97269	0.16763
2135.04401	0.16778
2133.11534	0.16797
2131.18666	0.16815
2129.25799	0.16829
2127.32931	0.16844
2125.40064	0.16863
2123.47196	0.16881
2121.54328	0.16897
2119.61461	0.16912
2117.68593	0.16929
2115.75726	0.16946
2113.82858	0.16964
2111.89991	0.16982
2109.97123	0.16999
2108.04255	0.17015
2106.11388	0.17030
2104.18520	0.17048
2102.25653	0.17066
2100.32785	0.17082
2098.39918	0.17101
2096.47050	0.17121
2094.54182	0.17139
2092.61315	0.17151
2090.68447	0.17164
2088.75580	0.17180
2086.82712	0.17200
2084.89845	0.17220
2082.96977	0.17237
2081.04109	0.17250
2079.11242	0.17264
2077.18374	0.17281
2075.25507	0.17301
2073.32639	0.17323
2071.39772	0.17339
2069.46904	0.17349
2067.54036	0.17361
2065.61169	0.17380
2063.68301	0.17400
2061.75434	0.17416
2059.82566	0.17430
2057.89699	0.17445
2055.96831	0.17458
2054.03963	0.17469
2052.11096	0.17487
2050.18228	0.17512
2048.25361	0.17534
2046.32493	0.17549
2044.39626	0.17561
2042.46758	0.17575
2040.53890	0.17592
2038.61023	0.17608
2036.68155	0.17625
2034.75288	0.17643
2032.82420	0.17664
2030.89553	0.17685
2028.96685	0.17705
2027.03817	0.17722
2025.10950	0.17736
2023.18082	0.17748
2021.25215	0.17761
2019.32347	0.17776
2017.39480	0.17793
2015.46612	0.17812
2013.53744	0.17829
2011.60877	0.17847
2009.68009	0.17867
2007.75142	0.17885
2005.82274	0.17900
2003.89407	0.17915
2001.96539	0.17933
2000.03671	0.17950
1998.10804	0.17965
1996.17936	0.17977
1994.25069	0.17984
1992.32201	0.17992
1990.39334	0.18008
1988.46466	0.18031
1986.53598	0.18054
1984.60731	0.18073
1982.67863	0.18086
1980.74996	0.18097
1978.82128	0.18112
1976.89261	0.18130
1974.96393	0.18145
1973.03525	0.18157
1971.10658	0.18168
1969.17790	0.18178
1967.24923	0.18190
1965.32055	0.18210
1963.39188	0.18231
1961.46320	0.18247
1959.53452	0.18260
1957.60585	0.18274
1955.67717	0.18286
1953.74850	0.18298
1951.81982	0.18314
1949.89115	0.18336
1947.96247	0.18355
1946.03379	0.18366
1944.10512	0.18367
1942.17644	0.18377
1940.24777	0.18404
1938.31909	0.18434
1936.39042	0.18455
1934.46174	0.18470
1932.53306	0.18482
1930.60439	0.18494
1928.67571	0.18509
1926.74704	0.18527
1924.81836	0.18541
1922.88969	0.18555
1920.96101	0.18572
1919.03233	0.18586
1917.10366	0.18606
1915.17498	0.18635
1913.24631	0.18657
1911.31763	0.18666
1909.38896	0.18670
1907.46028	0.18684
1905.53160	0.18709
1903.60293	0.18734
1901.67425	0.18751
1899.74558	0.18764
1897.81690	0.18778
1895.88823	0.18794
1893.95955	0.18810
1892.03087	0.18816
1890.10220	0.18817
1888.17352	0.18833
1886.24485	0.18856
1884.31617	0.18877
1882.38750	0.18898
1880.45882	0.18918
1878.53014	0.18933
1876.60147	0.18948
1874.67279	0.18964
1872.74412	0.18969
1870.81544	0.18960
1868.88677	0.18965
1866.95809	0.19000
1865.02941	0.19042
1863.10074	0.19068
1861.17206	0.19085
1859.24339	0.19102
1857.31471	0.19124
1855.38604	0.19146
1853.45736	0.19164
1851.52868	0.19177
1849.60001	0.19184
1847.67133	0.19187
1845.74266	0.19185
1843.81398	0.19195
1841.88531	0.19228
1839.95663	0.19262
1838.02795	0.19283
1836.09928	0.19298
1834.17060	0.19311
1832.24193	0.19319
1830.31325	0.19328
1828.38458	0.19345
1826.45590	0.19364
1824.52722	0.19384
1822.59855	0.19411
1820.66987	0.19436
1818.74120	0.19449
1816.81252	0.19460
1814.88385	0.19472
1812.95517	0.19482
1811.02649	0.19494
1809.09782	0.19511
1807.16914	0.19532
1805.24047	0.19546
1803.31179	0.19545
1801.38312	0.19544
1799.45444	0.19561
1797.52576	0.19586
1795.59709	0.19594
1793.66841	0.19585
1791.73974	0.19594
1789.81106	0.19631
1787.88239	0.19660
1785.95371	0.19667
1784.02503	0.19676
1782.09636	0.19693
1780.16768	0.19711
1778.23901	0.19725
1776.31033	0.19727
1774.38166	0.19716
1772.45298	0.19711
1770.52430	0.19725
1768.59563	0.19752
1766.66695	0.19780
1764.73828	0.19793
1762.80960	0.19794
1760.88093	0.19801
1758.95225	0.19815
1757.02357	0.19824
1755.09490	0.19817
1753.16622	0.19775
1751.23755	0.19733
1749.30887	0.19743
1747.38020	0.19779
1745.45152	0.19797
1743.52284	0.19795
1741.59417	0.19786
1739.66549	0.19794
1737.73682	0.19813
1735.80814	0.19802
1733.87947	0.19782
1731.95079	0.19807
1730.02211	0.19859
1728.09344	0.19900
1726.16476	0.19923
1724.23609	0.19933
1722.30741	0.19935
1720.37874	0.19908
1718.45006	0.19864
1716.52138	0.19871
1714.59271	0.19931
1712.66403	0.19989
1710.73536	0.20018
1708.80668	0.20018
1706.87801	0.20009
1704.94933	0.20016
1703.02065	0.20014
1701.09198	0.19993
1699.16330	0.19995
1697.23463	0.20015
1695.30595	0.20041
1693.37728	0.20073
1691.44860	0.20088
1689.51992	0.20086
1687.59125	0.20076
1685.66257	0.20041
1683.73390	0.20018
1681.80522	0.20048
1679.87655	0.20090
1677.94787	0.20077
1676.01919	0.20032
1674.09052	0.20020
1672.16184	0.20036
1670.23317	0.20059
1668.30449	0.20103
1666.37582	0.20144
1664.44714	0.20152
1662.51846	0.20150
1660.58979	0.20163
1658.66111	0.20175
1656.73244	0.20143
1654.80376	0.20051
1652.87509	0.19994
1650.94641	0.20039
1649.01773	0.20097
1647.08906	0.20123
1645.16038	0.20163
1643.23171	0.20207
1641.30303	0.20221
1639.37436	0.20203
1637.44568	0.20175
1635.51700	0.20177
1633.58833	0.20215
1631.65965	0.20250
1629.73098	0.20255
1627.80230	0.20244
1625.87363	0.20222
1623.94495	0.20186
1622.01627	0.20158
1620.08760	0.20152
1618.15892	0.20173
1616.23025	0.20231
1614.30157	0.20309
1612.37290	0.20364
1610.44422	0.20393
1608.51554	0.20412
1606.58687	0.20433
1604.65819	0.20458
1602.72952	0.20483
1600.80084	0.20506
1598.87217	0.20525
1596.94349	0.20540
1595.01481	0.20555
1593.08614	0.20572
1591.15746	0.20588
1589.22879	0.20598
1587.30011	0.20612
1585.37144	0.20631
1583.44276	0.20652
1581.51408	0.20670
1579.58541	0.20659
1577.65673	0.20617
1575.72806	0.20611
1573.79938	0.20665
1571.87071	0.20702
1569.94203	0.20705
1568.01335	0.20717
1566.08468	0.20734
1564.15600	0.20738
1562.22733	0.20714
1560.29865	0.20667
1558.36998	0.20661
1556.44130	0.20724
1554.51262	0.20798
1552.58395	0.20837
1550.65527	0.20851
1548.72660	0.20858
1546.79792	0.20846
1544.86925	0.20804
1542.94057	0.20764
1541.01189	0.20764
1539.08322	0.20813
1537.15454	0.20865
1535.22587	0.20873
1533.29719	0.20875
1531.36852	0.20911
1529.43984	0.20939
1527.51116	0.20937
1525.58249	0.20922
1523.65381	0.20896
1521.72514	0.20888
1519.79646	0.20918
1517.86779	0.20944
1515.93911	0.20951
1514.01043	0.20969
1512.08176	0.20981
1510.15308	0.20945
1508.22441	0.20886
1506.29573	0.20898
1504.36706	0.20984
1502.43838	0.21040
1500.50970	0.21027
1498.58103	0.20991
1496.65235	0.20980
1494.72368	0.21004
1492.79500	0.21020
1490.86633	0.21004
1488.93765	0.20991
1487.00897	0.21000
1485.08030	0.21012
1483.15162	0.21006
1481.22295	0.20987
1479.29427	0.20953
1477.36560	0.20895
1475.43692	0.20827
1473.50824	0.20779
1471.57957	0.20771
1469.65089	0.20782
1467.72222	0.20760
1465.79354	0.20716
1463.86487	0.20703
1461.93619	0.20703
1460.00751	0.20650
1458.07884	0.20571
1456.15016	0.20559
1454.22149	0.20613
1452.29281	0.20656
1450.36414	0.20666
1448.43546	0.20669
1446.50678	0.20682
1444.57811	0.20705
1442.64943	0.20722
1440.72076	0.20725
1438.79208	0.20711
1436.86341	0.20701
1434.93473	0.20726
1433.00605	0.20762
1431.07738	0.20778
1429.14870	0.20789
1427.22003	0.20799
1425.29135	0.20792
1423.36268	0.20774
1421.43400	0.20731
1419.50532	0.20693
1417.57665	0.20723
1415.64797	0.20786
1413.71930	0.20816
1411.79062	0.20823
1409.86195	0.20829
1407.93327	0.20827
1406.00459	0.20814
1404.07592	0.20811
1402.14724	0.20816
1400.21857	0.20805
1398.28989	0.20786
1396.36122	0.20775
1394.43254	0.20775
1392.50386	0.20780
1390.57519	0.20773
1388.64651	0.20743
1386.71784	0.20705
1384.78916	0.20687
1382.86049	0.20692
1380.93181	0.20697
1379.00313	0.20696
1377.07446	0.20685
1375.14578	0.20666
1373.21711	0.20660
1371.28843	0.20672
1369.35976	0.20679
1367.43108	0.20673
1365.50240	0.20664
1363.57373	0.20654
1361.64505	0.20659
1359.71638	0.20677
1357.78770	0.20689
1355.85903	0.20691
1353.93035	0.20696
1352.00167	0.20712
1350.07300	0.20726
1348.14432	0.20731
1346.21565	0.20735
1344.28697	0.20738
1342.35830	0.20726
1340.42962	0.20706
1338.50094	0.20698
1336.57227	0.20704
1334.64359	0.20705
1332.71492	0.20695
1330.78624	0.20680
1328.85757	0.20666
1326.92889	0.20658
1325.00021	0.20647
1323.07154	0.20628
1321.14286	0.20609
1319.21419	0.20595
1317.28551	0.20579
1315.35684	0.20555
1313.42816	0.20525
1311.49948	0.20497
1309.57081	0.20478
1307.64213	0.20465
1305.71346	0.20449
1303.78478	0.20432
1301.85611	0.20414
1299.92743	0.20395
1297.99875	0.20371
1296.07008	0.20346
1294.14140	0.20325
1292.21273	0.20308
1290.28405	0.20292
1288.35538	0.20273
1286.42670	0.20255
1284.49802	0.20236
1282.56935	0.20210
1280.64067	0.20179
1278.71200	0.20142
1276.78332	0.20097
1274.85465	0.20051
1272.92597	0.20008
1270.99729	0.19955
1269.06862	0.19875
1267.13994	0.19776
1265.21127	0.19687
1263.28259	0.19632
1261.35392	0.19612
1259.42524	0.19615
1257.49656	0.19632
1255.56789	0.19652
1253.63921	0.19662
1251.71054	0.19651
1249.78186	0.19622
1247.85319	0.19585
1245.92451	0.19547
1243.99583	0.19508
1242.06716	0.19467
1240.13848	0.19424
1238.20981	0.19375
1236.28113	0.19320
1234.35246	0.19261
1232.42378	0.19203
1230.49510	0.19145
1228.56643	0.19086
1226.63775	0.19028
1224.70908	0.18979
1222.78040	0.18936
1220.85173	0.18888
1218.92305	0.18833
1216.99437	0.18780
1215.06570	0.18728
1213.13702	0.18676
1211.20835	0.18622
1209.27967	0.18564
1207.35100	0.18507
1205.42232	0.18451
1203.49364	0.18395
1201.56497	0.18336
1199.63629	0.18271
1197.70762	0.18203
1195.77894	0.18138
1193.85027	0.18075
1191.92159	0.18010
1189.99291	0.17942
1188.06424	0.17872
1186.13556	0.17800
1184.20689	0.17720
1182.27821	0.17629
1180.34954	0.17538
1178.42086	0.17455
1176.49218	0.17377
1174.56351	0.17300
1172.63483	0.17217
1170.70616	0.17125
1168.77748	0.17031
1166.84881	0.16939
1164.92013	0.16851
1162.99145	0.16765
1161.06278	0.16678
1159.13410	0.16591
1157.20543	0.16511
1155.27675	0.16438
1153.34808	0.16364
1151.41940	0.16286
1149.49072	0.16203
1147.56205	0.16120
1145.63337	0.16034
1143.70470	0.15944
1141.77602	0.15849
1139.84735	0.15745
1137.91867	0.15633
1135.98999	0.15510
1134.06132	0.15368
1132.13264	0.15204
1130.20397	0.15021
1128.27529	0.14814
1126.34662	0.14581
1124.41794	0.14341
1122.48926	0.14103
1120.56059	0.13862
1118.63191	0.13623
1116.70324	0.13406
1114.77456	0.13220
1112.84589	0.13060
1110.91721	0.12920
1108.98853	0.12811
1107.05986	0.12741
1105.13118	0.12700
1103.20251	0.12684
1101.27383	0.12697
1099.34516	0.12736
1097.41648	0.12796
1095.48780	0.12876
1093.55913	0.12964
1091.63045	0.13052
1089.70178	0.13135
1087.77310	0.13211
1085.84443	0.13277
1083.91575	0.13329
1081.98707	0.13369
1080.05840	0.13396
1078.12972	0.13415
1076.20105	0.13433
1074.27237	0.13450
1072.34370	0.13468
1070.41502	0.13483
1068.48634	0.13496
1066.55767	0.13508
1064.62899	0.13524
1062.70032	0.13541
1060.77164	0.13560
1058.84297	0.13584
1056.91429	0.13612
1054.98561	0.13639
1053.05694	0.13669
1051.12826	0.13705
1049.19959	0.13745
1047.27091	0.13781
1045.34224	0.13815
1043.41356	0.13854
1041.48488	0.13897
1039.55621	0.13943
1037.62753	0.13987
1035.69886	0.14029
1033.77018	0.14065
1031.84151	0.14098
1029.91283	0.14130
1027.98415	0.14165
1026.05548	0.14201
1024.12680	0.14237
1022.19813	0.14268
1020.26945	0.14296
1018.34078	0.14331
1016.41210	0.14376
1014.48342	0.14428
1012.55475	0.14490
1010.62607	0.14556
1008.69740	0.14617
1006.76872	0.14677
1004.84005	0.14735
1002.91137	0.14776
1000.98269	0.14805
999.05402	0.14835
997.12534	0.14865
995.19667	0.14887
993.26799	0.14898
991.33932	0.14901
989.41064	0.14905
987.48196	0.14908
985.55329	0.14907
983.62461	0.14904
981.69594	0.14899
979.76726	0.14888
977.83859	0.14872
975.90991	0.14857
973.98123	0.14841
972.05256	0.14823
970.12388	0.14804
968.19521	0.14783
966.26653	0.14763
964.33786	0.14745
962.40918	0.14729
960.48050	0.14718
958.55183	0.14707
956.62315	0.14691
954.69448	0.14673
952.76580	0.14651
950.83713	0.14626
948.90845	0.14611
946.97977	0.14602
945.05110	0.14583
943.12242	0.14553
941.19375	0.14514
939.26507	0.14466
937.33640	0.14415
935.40772	0.14369
933.47904	0.14326
931.55037	0.14276
929.62169	0.14220
927.69302	0.14168
925.76434	0.14122
923.83567	0.14071
921.90699	0.14007
919.97831	0.13938
918.04964	0.13871
916.12096	0.13803
914.19229	0.13733
912.26361	0.13657
910.33494	0.13576
908.40626	0.13494
906.47758	0.13417
904.54891	0.13355
902.62023	0.13305
900.69156	0.13257
898.76288	0.13200
896.83421	0.13137
894.90553	0.13081
892.97685	0.13035
891.04818	0.12993
889.11950	0.12952
887.19083	0.12908
885.26215	0.12867
883.33348	0.12828
881.40480	0.12796
879.47612	0.12768
877.54745	0.12735
875.61877	0.12697
873.69010	0.12664
871.76142	0.12639
869.83275	0.12620
867.90407	0.12602
865.97539	0.12578
864.04672	0.12555
862.11804	0.12545
860.18937	0.12547
858.26069	0.12544
856.33202	0.12526
854.40334	0.12498
852.47466	0.12469
850.54599	0.12444
848.61731	0.12417
846.68864	0.12387
844.75996	0.12360
842.83129	0.12340
840.90261	0.12318
838.97394	0.12279
837.04526	0.12222
835.11658	0.12157
833.18791	0.12082
831.25923	0.11991
829.33056	0.11887
827.40188	0.11780
825.47321	0.11674
823.54453	0.11573
821.61585	0.11487
819.68718	0.11418
817.75850	0.11358
815.82983	0.11310
813.90115	0.11277
811.97248	0.11253
810.04380	0.11229
808.11512	0.11203
806.18645	0.11185
804.25777	0.11176
802.32910	0.11175
800.40042	0.11165
798.47175	0.11119
796.54307	0.11053
794.61439	0.10999
792.68572	0.10956
790.75704	0.10919
788.82837	0.10888
786.89969	0.10860
784.97102	0.10834
783.04234	0.10808
781.11366	0.10783
779.18499	0.10758
777.25631	0.10728
775.32764	0.10691
773.39896	0.10658
771.47029	0.10632
769.54161	0.10603
767.61293	0.10563
765.68426	0.10516
763.75558	0.10468
761.82691	0.10420
759.89823	0.10368
757.96956	0.10309
756.04088	0.10251
754.11220	0.10193
752.18353	0.10134
750.25485	0.10070
748.32618	0.09994
746.39750	0.09906
744.46883	0.09813
742.54015	0.09720
740.61147	0.09637
738.68280	0.09581
736.75412	0.09557
734.82545	0.09547
732.89677	0.09547
730.96810	0.09561
729.03942	0.09574
727.11074	0.09585
725.18207	0.09601
723.25339	0.09617
721.32472	0.09626
719.39604	0.09636
717.46737	0.09655
715.53869	0.09692
713.61001	0.09741
711.68134	0.09785
709.75266	0.09820
707.82399	0.09834
705.89531	0.09817
703.96664	0.09784
702.03796	0.09751
700.10928	0.09716
698.18061	0.09666
696.25193	0.09603
694.32326	0.09544
692.39458	0.09492
690.46591	0.09440
688.53723	0.09388
686.60855	0.09340
684.67988	0.09297
682.75120	0.09255
680.82253	0.09204
678.89385	0.09137
676.96518	0.09064
675.03650	0.08993
673.10782	0.08925
671.17915	0.08850
669.25047	0.08767
667.32180	0.08689
665.39312	0.08611
663.46445	0.08525
661.53577	0.08433
659.60709	0.08346
657.67842	0.08264
655.74974	0.08181
653.82107	0.08102
651.89239	0.08027
649.96372	0.07946
648.03504	0.07858
646.10636	0.07771
644.17769	0.07676
642.24901	0.07570
640.32034	0.07463
638.39166	0.07356
636.46299	0.07242
634.53431	0.07127
632.60563	0.06986
630.67696	0.06753
628.74828	0.06394
626.81961	0.05937
624.89093	0.05474
622.96226	0.05108
621.03358	0.04874
619.10490	0.04744
617.17623	0.04667
615.24755	0.04589
613.31888	0.04488
611.39020	0.04381
609.46153	0.04320
607.53285	0.04332
605.60417	0.04382
603.67550	0.04438
601.74682	0.04512
599.81815	0.04612
597.88947	0.04705
595.96080	0.04765
594.03212	0.04804
592.10344	0.04834
590.17477	0.04848
588.24609	0.04840
586.31742	0.04820
584.38874	0.04795
582.46007	0.04762
580.53139	0.04722
578.60271	0.04685
576.67404	0.04651
574.74536	0.04605
572.81669	0.04537
570.88801	0.04460
568.95934	0.04387
567.03066	0.04326
565.10198	0.04284
563.17331	0.04254
561.24463	0.04231
559.31596	0.04212
557.38728	0.04195
555.45861	0.04175
553.52993	0.04153
551.60125	0.04133
549.67258	0.04114
547.74390	0.04091
545.81523	0.04077
543.88655	0.04071
541.95788	0.04056
540.02920	0.04034
538.10052	0.04025
536.17185	0.04016
534.24317	0.03989
532.31450	0.03956
530.38582	0.03926
528.45715	0.03900
526.52847	0.03872
524.59979	0.03832
522.67112	0.03782
520.74244	0.03735
518.81377	0.03681
516.88509	0.03618
514.95642	0.03560
513.02774	0.03524
511.09906	0.03500
509.17039	0.03478
507.24171	0.03458
505.31304	0.03437
503.38436	0.03405
501.45569	0.03365
499.52701	0.03323
497.59833	0.03275
495.66966	0.03218
493.74098	0.03153
491.81231	0.03090
489.88363	0.03038
487.95496	0.02992
486.02628	0.02945
484.09760	0.02895
482.16893	0.02836
480.24025	0.02770
478.31158	0.02704
476.38290	0.02640
474.45423	0.02582
472.52555	0.02532
470.59687	0.02488
468.66820	0.02452
466.73952	0.02422
464.81085	0.02394
462.88217	0.02367
460.95350	0.02346
459.02482	0.02329
457.09614	0.02319
455.16747	0.02327
453.23879	0.02345
451.31012	0.02349
449.38144	0.02331
447.45277	0.02303
445.52409	0.02282
443.59541	0.02268
441.66674	0.02251
439.73806	0.02217
437.80939	0.02164
435.88071	0.02104
433.95204	0.02046
432.02336	0.01987
430.09468	0.01924
428.16601	0.01853
426.23733	0.01784
424.30866	0.01729
422.37998	0.01679
420.45131	0.01623
418.52263	0.01557
416.59395	0.01480
414.66528	0.01398
412.73660	0.01326
410.80793	0.01265
408.87925	0.01208
406.95058	0.01153
405.02190	0.01108
403.09322	0.01067
401.16455	0.01011
399.23587	0.00936
397.30720	0.00860
395.37852	0.00798
393.44985	0.00749
391.52117	0.00709
389.59249	0.00668
387.66382	0.00625
385.73514	0.00587
383.80647	0.00550
381.87779	0.00503
379.94912	0.00454
378.02044	0.00410
376.09176	0.00374
374.16309	0.00344
372.23441	0.00312
370.30574	0.00274
368.37706	0.00236
