7496.76250	0.00123
7494.83382	0.00124
7492.90514	0.00124
7490.97647	0.00124
7489.04779	0.00123
7487.11912	0.00123
7485.19044	0.00124
7483.26177	0.00124
7481.33309	0.00124
7479.40441	0.00124
7477.47574	0.00125
7475.54706	0.00126
7473.61839	0.00126
7471.68971	0.00125
7469.76104	0.00125
7467.83236	0.00125
7465.90368	0.00126
7463.97501	0.00127
7462.04633	0.00127
7460.11766	0.00127
7458.18898	0.00127
7456.26031	0.00127
7454.33163	0.00127
7452.40295	0.00127
7450.47428	0.00129
7448.54560	0.00130
7446.61693	0.00131
7444.68825	0.00131
7442.75958	0.00130
7440.83090	0.00129
7438.90222	0.00128
7436.97355	0.00129
7435.04487	0.00131
7433.11620	0.00134
7431.18752	0.00135
7429.25885	0.00135
7427.33017	0.00135
7425.40149	0.00135
7423.47282	0.00135
7421.54414	0.00134
7419.61547	0.00133
7417.68679	0.00133
7415.75812	0.00134
7413.82944	0.00136
7411.90076	0.00135
7409.97209	0.00135
7408.04341	0.00134
7406.11474	0.00135
7404.18606	0.00137
7402.25739	0.00139
7400.32871	0.00139
7398.40003	0.00138
7396.47136	0.00137
7394.54268	0.00138
7392.61401	0.00139
7390.68533	0.00139
7388.75666	0.00139
7386.82798	0.00140
7384.89930	0.00140
7382.97063	0.00141
7381.04195	0.00142
7379.11328	0.00141
7377.18460	0.00141
7375.25593	0.00142
7373.32725	0.00144
7371.39857	0.00145
7369.46990	0.00145
7367.54122	0.00145
7365.61255	0.00146
7363.68387	0.00145
7361.75520	0.00143
7359.82652	0.00143
7357.89784	0.00143
7355.96917	0.00143
7354.04049	0.00145
7352.11182	0.00146
7350.18314	0.00147
7348.25447	0.00147
7346.32579	0.00147
7344.39711	0.00148
7342.46844	0.00148
7340.53976	0.00149
7338.61109	0.00148
7336.68241	0.00148
7334.75374	0.00149
7332.82506	0.00151
7330.89638	0.00152
7328.96771	0.00152
7327.03903	0.00151
7325.11036	0.00152
7323.18168	0.00153
7321.25301	0.00154
7319.32433	0.00153
7317.39565	0.00152
7315.46698	0.00152
7313.53830	0.00152
7311.60963	0.00153
7309.68095	0.00154
7307.75228	0.00155
7305.82360	0.00156
7303.89492	0.00157
7301.96625	0.00157
7300.03757	0.00157
7298.10890	0.00157
7296.18022	0.00158
7294.25155	0.00158
7292.32287	0.00158
7290.39419	0.00159
7288.46552	0.00160
7286.53684	0.00160
7284.60817	0.00159
7282.67949	0.00158
7280.75082	0.00158
7278.82214	0.00158
7276.89346	0.00159
7274.96479	0.00160
7273.03611	0.00161
7271.10744	0.00162
7269.17876	0.00162
7267.25009	0.00162
7265.32141	0.00163
7263.39273	0.00163
7261.46406	0.00163
7259.53538	0.00165
7257.60671	0.00166
7255.67803	0.00166
7253.74936	0.00166
7251.82068	0.00166
7249.89200	0.00167
7247.96333	0.00168
7246.03465	0.00170
7244.10598	0.00170
7242.17730	0.00168
7240.24863	0.00168
7238.31995	0.00169
7236.39127	0.00169
7234.46260	0.00168
7232.53392	0.00168
7230.60525	0.00169
7228.67657	0.00169
7226.74790	0.00170
7224.81922	0.00171
7222.89054	0.00173
7220.96187	0.00174
7219.03319	0.00174
7217.10452	0.00174
7215.17584	0.00175
7213.24717	0.00176
7211.31849	0.00175
7209.38981	0.00175
7207.46114	0.00175
7205.53246	0.00176
7203.60379	0.00178
7201.67511	0.00177
7199.74644	0.00175
7197.81776	0.00174
7195.88908	0.00176
7193.96041	0.00178
7192.03173	0.00179
7190.10306	0.00179
7188.17438	0.00180
7186.24571	0.00179
7184.31703	0.00178
7182.38835	0.00178
7180.45968	0.00179
7178.53100	0.00179
7176.60233	0.00180
7174.67365	0.00181
7172.74498	0.00182
7170.81630	0.00182
7168.88762	0.00181
7166.95895	0.00181
7165.03027	0.00183
7163.10160	0.00184
7161.17292	0.00185
7159.24425	0.00186
7157.31557	0.00186
7155.38689	0.00185
7153.45822	0.00185
7151.52954	0.00185
7149.60087	0.00187
7147.67219	0.00188
7145.74352	0.00189
7143.81484	0.00190
7141.88616	0.00191
7139.95749	0.00192
7138.02881	0.00192
7136.10014	0.00192
7134.17146	0.00193
7132.24279	0.00193
7130.31411	0.00193
7128.38543	0.00191
7126.45676	0.00190
7124.52808	0.00192
7122.59941	0.00194
7120.67073	0.00195
7118.74206	0.00194
7116.81338	0.00193
7114.88470	0.00193
7112.95603	0.00193
7111.02735	0.00194
7109.09868	0.00195
7107.17000	0.00195
7105.24133	0.00196
7103.31265	0.00197
7101.38397	0.00198
7099.45530	0.00199
7097.52662	0.00200
7095.59795	0.00201
7093.66927	0.00201
7091.74060	0.00201
7089.81192	0.00202
7087.88324	0.00202
7085.95457	0.00201
7084.02589	0.00201
7082.09722	0.00203
7080.16854	0.00204
7078.23987	0.00205
7076.31119	0.00203
7074.38251	0.00202
7072.45384	0.00202
7070.52516	0.00203
7068.59649	0.00203
7066.66781	0.00204
7064.73914	0.00203
7062.81046	0.00202
7060.88178	0.00202
7058.95311	0.00204
7057.02443	0.00207
7055.09576	0.00208
7053.16708	0.00208
7051.23841	0.00208
7049.30973	0.00209
7047.38105	0.00210
7045.45238	0.00210
7043.52370	0.00210
7041.59503	0.00210
7039.66635	0.00210
7037.73768	0.00211
7035.80900	0.00212
7033.88032	0.00212
7031.95165	0.00213
7030.02297	0.00213
7028.09430	0.00214
7026.16562	0.00214
7024.23695	0.00214
7022.30827	0.00214
7020.37959	0.00215
7018.45092	0.00216
7016.52224	0.00219
7014.59357	0.00220
7012.66489	0.00220
7010.73622	0.00219
7008.80754	0.00218
7006.87886	0.00219
7004.95019	0.00220
7003.02151	0.00221
7001.09284	0.00220
6999.16416	0.00221
6997.23549	0.00223
6995.30681	0.00224
6993.37813	0.00225
6991.44946	0.00224
6989.52078	0.00224
6987.59211	0.00224
6985.66343	0.00224
6983.73476	0.00224
6981.80608	0.00224
6979.87740	0.00224
6977.94873	0.00225
6976.02005	0.00226
6974.09138	0.00226
6972.16270	0.00226
6970.23403	0.00226
6968.30535	0.00228
6966.37667	0.00229
6964.44800	0.00230
6962.51932	0.00231
6960.59065	0.00231
6958.66197	0.00232
6956.73330	0.00233
6954.80462	0.00232
6952.87594	0.00231
6950.94727	0.00232
6949.01859	0.00234
6947.08992	0.00235
6945.16124	0.00234
6943.23257	0.00234
6941.30389	0.00236
6939.37521	0.00237
6937.44654	0.00236
6935.51786	0.00236
6933.58919	0.00237
6931.66051	0.00239
6929.73184	0.00239
6927.80316	0.00239
6925.87448	0.00239
6923.94581	0.00239
6922.01713	0.00240
6920.08846	0.00240
6918.15978	0.00241
6916.23111	0.00241
6914.30243	0.00243
6912.37375	0.00244
6910.44508	0.00244
6908.51640	0.00245
6906.58773	0.00245
6904.65905	0.00244
6902.73038	0.00245
6900.80170	0.00246
6898.87302	0.00247
6896.94435	0.00248
6895.01567	0.00248
6893.08700	0.00249
6891.15832	0.00249
6889.22965	0.00251
6887.30097	0.00252
6885.37229	0.00251
6883.44362	0.00249
6881.51494	0.00250
6879.58627	0.00252
6877.65759	0.00252
6875.72892	0.00251
6873.80024	0.00251
6871.87156	0.00251
6869.94289	0.00252
6868.01421	0.00254
6866.08554	0.00256
6864.15686	0.00258
6862.22819	0.00259
6860.29951	0.00259
6858.37083	0.00258
6856.44216	0.00255
6854.51348	0.00254
6852.58481	0.00254
6850.65613	0.00257
6848.72746	0.00260
6846.79878	0.00261
6844.87010	0.00260
6842.94143	0.00261
6841.01275	0.00262
6839.08408	0.00263
6837.15540	0.00265
6835.22673	0.00266
6833.29805	0.00267
6831.36937	0.00266
6829.44070	0.00264
6827.51202	0.00264
6825.58335	0.00267
6823.65467	0.00269
6821.72600	0.00270
6819.79732	0.00269
6817.86864	0.00269
6815.93997	0.00269
6814.01129	0.00270
6812.08262	0.00270
6810.15394	0.00270
6808.22527	0.00270
6806.29659	0.00270
6804.36791	0.00270
6802.43924	0.00270
6800.51056	0.00270
6798.58189	0.00272
6796.65321	0.00276
6794.72454	0.00278
6792.79586	0.00278
6790.86718	0.00277
6788.93851	0.00278
6787.00983	0.00279
6785.08116	0.00280
6783.15248	0.00280
6781.22381	0.00280
6779.29513	0.00281
6777.36645	0.00281
6775.43778	0.00281
6773.50910	0.00281
6771.58043	0.00282
6769.65175	0.00283
6767.72308	0.00284
6765.79440	0.00284
6763.86572	0.00285
6761.93705	0.00285
6760.00837	0.00285
6758.07970	0.00285
6756.15102	0.00285
6754.22235	0.00286
6752.29367	0.00286
6750.36499	0.00287
6748.43632	0.00287
6746.50764	0.00289
6744.57897	0.00291
6742.65029	0.00293
6740.72162	0.00293
6738.79294	0.00293
6736.86426	0.00294
6734.93559	0.00296
6733.00691	0.00296
6731.07824	0.00297
6729.14956	0.00297
6727.22089	0.00298
6725.29221	0.00298
6723.36353	0.00297
6721.43486	0.00298
6719.50618	0.00299
6717.57751	0.00300
6715.64883	0.00302
6713.72016	0.00303
6711.79148	0.00303
6709.86280	0.00304
6707.93413	0.00304
6706.00545	0.00303
6704.07678	0.00302
6702.14810	0.00302
6700.21943	0.00304
6698.29075	0.00306
6696.36207	0.00307
6694.43340	0.00308
6692.50472	0.00308
6690.57605	0.00309
6688.64737	0.00310
6686.71870	0.00310
6684.79002	0.00310
6682.86134	0.00311
6680.93267	0.00312
6679.00399	0.00312
6677.07532	0.00312
6675.14664	0.00313
6673.21797	0.00314
6671.28929	0.00315
6669.36061	0.00315
6667.43194	0.00316
6665.50326	0.00316
6663.57459	0.00316
6661.64591	0.00318
6659.71724	0.00321
6657.78856	0.00322
6655.85988	0.00323
6653.93121	0.00322
6652.00253	0.00322
6650.07386	0.00323
6648.14518	0.00323
6646.21651	0.00323
6644.28783	0.00324
6642.35915	0.00324
6640.43048	0.00324
6638.50180	0.00326
6636.57313	0.00328
6634.64445	0.00329
6632.71578	0.00329
6630.78710	0.00330
6628.85842	0.00329
6626.92975	0.00328
6625.00107	0.00329
6623.07240	0.00332
6621.14372	0.00333
6619.21505	0.00334
6617.28637	0.00334
6615.35769	0.00333
6613.42902	0.00334
6611.50034	0.00335
6609.57167	0.00336
6607.64299	0.00337
6605.71432	0.00338
6603.78564	0.00339
6601.85696	0.00340
6599.92829	0.00341
6597.99961	0.00342
6596.07094	0.00343
6594.14226	0.00342
6592.21359	0.00341
6590.28491	0.00342
6588.35623	0.00343
6586.42756	0.00345
6584.49888	0.00346
6582.57021	0.00346
6580.64153	0.00345
6578.71286	0.00345
6576.78418	0.00348
6574.85550	0.00350
6572.92683	0.00352
6570.99815	0.00351
6569.06948	0.00351
6567.14080	0.00351
6565.21213	0.00353
6563.28345	0.00354
6561.35477	0.00355
6559.42610	0.00356
6557.49742	0.00359
6555.56875	0.00359
6553.64007	0.00358
6551.71140	0.00357
6549.78272	0.00356
6547.85404	0.00357
6545.92537	0.00359
6543.99669	0.00361
6542.06802	0.00362
6540.13934	0.00362
6538.21067	0.00362
6536.28199	0.00362
6534.35331	0.00362
6532.42464	0.00363
6530.49596	0.00364
6528.56729	0.00366
6526.63861	0.00368
6524.70994	0.00369
6522.78126	0.00368
6520.85258	0.00366
6518.92391	0.00365
6516.99523	0.00367
6515.06656	0.00369
6513.13788	0.00372
6511.20921	0.00374
6509.28053	0.00375
6507.35185	0.00375
6505.42318	0.00376
6503.49450	0.00377
6501.56583	0.00377
6499.63715	0.00377
6497.70848	0.00377
6495.77980	0.00379
6493.85112	0.00380
6491.92245	0.00381
6489.99377	0.00381
6488.06510	0.00382
6486.13642	0.00384
6484.20775	0.00385
6482.27907	0.00385
6480.35039	0.00383
6478.42172	0.00382
6476.49304	0.00382
6474.56437	0.00384
6472.63569	0.00387
6470.70702	0.00390
6468.77834	0.00391
6466.84966	0.00391
6464.92099	0.00391
6462.99231	0.00392
6461.06364	0.00394
6459.13496	0.00396
6457.20629	0.00396
6455.27761	0.00396
6453.34893	0.00396
6451.42026	0.00397
6449.49158	0.00401
6447.56291	0.00404
6445.63423	0.00404
6443.70556	0.00402
6441.77688	0.00402
6439.84820	0.00404
6437.91953	0.00406
6435.99085	0.00408
6434.06218	0.00408
6432.13350	0.00407
6430.20483	0.00408
6428.27615	0.00408
6426.34747	0.00409
6424.41880	0.00410
6422.49012	0.00410
6420.56145	0.00410
6418.63277	0.00414
6416.70410	0.00417
6414.77542	0.00417
6412.84674	0.00415
6410.91807	0.00416
6408.98939	0.00419
6407.06072	0.00420
6405.13204	0.00420
6403.20337	0.00419
6401.27469	0.00417
6399.34601	0.00417
6397.41734	0.00419
6395.48866	0.00421
6393.55999	0.00422
6391.63131	0.00423
6389.70264	0.00424
6387.77396	0.00425
6385.84528	0.00426
6383.91661	0.00427
6381.98793	0.00427
6380.05926	0.00428
6378.13058	0.00429
6376.20191	0.00430
6374.27323	0.00431
6372.34455	0.00432
6370.41588	0.00433
6368.48720	0.00434
6366.55853	0.00436
6364.62985	0.00437
6362.70118	0.00437
6360.77250	0.00437
6358.84382	0.00438
6356.91515	0.00439
6354.98647	0.00440
6353.05780	0.00442
6351.12912	0.00445
6349.20045	0.00446
6347.27177	0.00447
6345.34309	0.00447
6343.41442	0.00447
6341.48574	0.00448
6339.55707	0.00450
6337.62839	0.00452
6335.69972	0.00453
6333.77104	0.00452
6331.84236	0.00452
6329.91369	0.00453
6327.98501	0.00454
6326.05634	0.00455
6324.12766	0.00456
6322.19899	0.00457
6320.27031	0.00459
6318.34163	0.00460
6316.41296	0.00461
6314.48428	0.00462
6312.55561	0.00462
6310.62693	0.00462
6308.69826	0.00463
6306.76958	0.00463
6304.84090	0.00463
6302.91223	0.00463
6300.98355	0.00466
6299.05488	0.00467
6297.12620	0.00468
6295.19753	0.00469
6293.26885	0.00471
6291.34017	0.00473
6289.41150	0.00474
6287.48282	0.00475
6285.55415	0.00477
6283.62547	0.00479
6281.69680	0.00479
6279.76812	0.00480
6277.83944	0.00480
6275.91077	0.00479
6273.98209	0.00479
6272.05342	0.00481
6270.12474	0.00483
6268.19607	0.00484
6266.26739	0.00485
6264.33871	0.00486
6262.41004	0.00486
6260.48136	0.00487
6258.55269	0.00489
6256.62401	0.00491
6254.69534	0.00492
6252.76666	0.00492
6250.83798	0.00492
6248.90931	0.00494
6246.98063	0.00496
6245.05196	0.00499
6243.12328	0.00500
6241.19461	0.00499
6239.26593	0.00498
6237.33725	0.00498
6235.40858	0.00502
6233.47990	0.00505
6231.55123	0.00507
6229.62255	0.00507
6227.69388	0.00507
6225.76520	0.00508
6223.83652	0.00508
6221.90785	0.00509
6219.97917	0.00509
6218.05050	0.00509
6216.12182	0.00509
6214.19315	0.00510
6212.26447	0.00513
6210.33579	0.00516
6208.40712	0.00517
6206.47844	0.00517
6204.54977	0.00518
6202.62109	0.00520
6200.69242	0.00522
6198.76374	0.00524
6196.83506	0.00524
6194.90639	0.00523
6192.97771	0.00524
6191.04904	0.00526
6189.12036	0.00527
6187.19169	0.00527
6185.26301	0.00528
6183.33433	0.00530
6181.40566	0.00532
6179.47698	0.00533
6177.54831	0.00535
6175.61963	0.00536
6173.69096	0.00536
6171.76228	0.00538
6169.83360	0.00540
6167.90493	0.00540
6165.97625	0.00540
6164.04758	0.00541
6162.11890	0.00544
6160.19023	0.00546
6158.26155	0.00546
6156.33287	0.00545
6154.40420	0.00546
6152.47552	0.00548
6150.54685	0.00550
6148.61817	0.00550
6146.68950	0.00550
6144.76082	0.00552
6142.83214	0.00554
6140.90347	0.00556
6138.97479	0.00556
6137.04612	0.00556
6135.11744	0.00557
6133.18877	0.00559
6131.26009	0.00559
6129.33141	0.00560
6127.40274	0.00562
6125.47406	0.00564
6123.54539	0.00566
6121.61671	0.00567
6119.68804	0.00570
6117.75936	0.00572
6115.83068	0.00573
6113.90201	0.00572
6111.97333	0.00572
6110.04466	0.00573
6108.11598	0.00572
6106.18731	0.00573
6104.25863	0.00575
6102.32995	0.00579
6100.40128	0.00580
6098.47260	0.00580
6096.54393	0.00580
6094.61525	0.00580
6092.68658	0.00582
6090.75790	0.00584
6088.82922	0.00585
6086.90055	0.00586
6084.97187	0.00589
6083.04320	0.00591
6081.11452	0.00592
6079.18585	0.00592
6077.25717	0.00594
6075.32849	0.00596
6073.39982	0.00596
6071.47114	0.00596
6069.54247	0.00597
6067.61379	0.00597
6065.68512	0.00599
6063.75644	0.00601
6061.82776	0.00604
6059.89909	0.00606
6057.97041	0.00606
6056.04174	0.00605
6054.11306	0.00606
6052.18439	0.00608
6050.25571	0.00610
6048.32703	0.00613
6046.39836	0.00616
6044.46968	0.00618
6042.54101	0.00619
6040.61233	0.00617
6038.68366	0.00616
6036.75498	0.00618
6034.82630	0.00621
6032.89763	0.00623
6030.96895	0.00624
6029.04028	0.00626
6027.11160	0.00628
6025.18293	0.00629
6023.25425	0.00630
6021.32557	0.00631
6019.39690	0.00632
6017.46822	0.00633
6015.53955	0.00635
6013.61087	0.00636
6011.68220	0.00636
6009.75352	0.00638
6007.82484	0.00641
6005.89617	0.00644
6003.96749	0.00646
6002.03882	0.00646
6000.11014	0.00646
5998.18147	0.00646
5996.25279	0.00647
5994.32411	0.00649
5992.39544	0.00650
5990.46676	0.00652
5988.53809	0.00654
5986.60941	0.00656
5984.68074	0.00657
5982.75206	0.00658
5980.82338	0.00661
5978.89471	0.00665
5976.96603	0.00667
5975.03736	0.00667
5973.10868	0.00667
5971.18001	0.00667
5969.25133	0.00668
5967.32265	0.00668
5965.39398	0.00667
5963.46530	0.00667
5961.53663	0.00668
5959.60795	0.00671
5957.67928	0.00675
5955.75060	0.00678
5953.82192	0.00678
5951.89325	0.00678
5949.96457	0.00679
5948.03590	0.00681
5946.10722	0.00683
5944.17855	0.00683
5942.24987	0.00684
5940.32119	0.00687
5938.39252	0.00689
5936.46384	0.00689
5934.53517	0.00689
5932.60649	0.00690
5930.67782	0.00693
5928.74914	0.00695
5926.82046	0.00696
5924.89179	0.00697
5922.96311	0.00700
5921.03444	0.00705
5919.10576	0.00709
5917.17709	0.00709
5915.24841	0.00708
5913.31973	0.00708
5911.39106	0.00708
5909.46238	0.00710
5907.53371	0.00712
5905.60503	0.00715
5903.67636	0.00718
5901.74768	0.00720
5899.81900	0.00721
5897.89033	0.00722
5895.96165	0.00723
5894.03298	0.00723
5892.10430	0.00722
5890.17563	0.00723
5888.24695	0.00725
5886.31827	0.00726
5884.38960	0.00728
5882.46092	0.00730
5880.53225	0.00731
5878.60357	0.00732
5876.67490	0.00732
5874.74622	0.00734
5872.81755	0.00737
5870.88887	0.00741
5868.96019	0.00744
5867.03152	0.00746
5865.10284	0.00747
5863.17417	0.00749
5861.24549	0.00749
5859.31682	0.00750
5857.38814	0.00751
5855.45946	0.00753
5853.53079	0.00755
5851.60211	0.00756
5849.67344	0.00755
5847.74476	0.00757
5845.81609	0.00761
5843.88741	0.00765
5841.95873	0.00766
5840.03006	0.00765
5838.10138	0.00765
5836.17271	0.00766
5834.24403	0.00768
5832.31536	0.00772
5830.38668	0.00773
5828.45800	0.00774
5826.52933	0.00775
5824.60065	0.00775
5822.67198	0.00777
5820.74330	0.00779
5818.81463	0.00782
5816.88595	0.00783
5814.95727	0.00783
5813.02860	0.00785
5811.09992	0.00788
5809.17125	0.00791
5807.24257	0.00791
5805.31390	0.00791
5803.38522	0.00791
5801.45654	0.00792
5799.52787	0.00793
5797.59919	0.00795
5795.67052	0.00798
5793.74184	0.00800
5791.81317	0.00802
5789.88449	0.00805
5787.95581	0.00808
5786.02714	0.00809
5784.09846	0.00809
5782.16979	0.00810
5780.24111	0.00812
5778.31244	0.00813
5776.38376	0.00815
5774.45508	0.00818
5772.52641	0.00820
5770.59773	0.00821
5768.66906	0.00821
5766.74038	0.00822
5764.81171	0.00825
5762.88303	0.00828
5760.95435	0.00830
5759.02568	0.00831
5757.09700	0.00833
5755.16833	0.00836
5753.23965	0.00840
5751.31098	0.00841
5749.38230	0.00842
5747.45362	0.00842
5745.52495	0.00841
5743.59627	0.00841
5741.66760	0.00843
5739.73892	0.00846
5737.81025	0.00849
5735.88157	0.00850
5733.95289	0.00852
5732.02422	0.00854
5730.09554	0.00857
5728.16687	0.00860
5726.23819	0.00862
5724.30952	0.00863
5722.38084	0.00863
5720.45216	0.00865
5718.52349	0.00867
5716.59481	0.00869
5714.66614	0.00871
5712.73746	0.00872
5710.80879	0.00873
5708.88011	0.00874
5706.95143	0.00877
5705.02276	0.00880
5703.09408	0.00882
5701.16541	0.00884
5699.23673	0.00887
5697.30806	0.00890
5695.37938	0.00891
5693.45070	0.00891
5691.52203	0.00891
5689.59335	0.00892
5687.66468	0.00894
5685.73600	0.00898
5683.80733	0.00901
5681.87865	0.00904
5679.94997	0.00906
5678.02130	0.00906
5676.09262	0.00906
5674.16395	0.00907
5672.23527	0.00908
5670.30660	0.00910
5668.37792	0.00912
5666.44924	0.00915
5664.52057	0.00917
5662.59189	0.00918
5660.66322	0.00918
5658.73454	0.00919
5656.80587	0.00921
5654.87719	0.00924
5652.94851	0.00926
5651.01984	0.00926
5649.09116	0.00927
5647.16249	0.00929
5645.23381	0.00930
5643.30514	0.00933
5641.37646	0.00936
5639.44778	0.00939
5637.51911	0.00941
5635.59043	0.00943
5633.66176	0.00945
5631.73308	0.00946
5629.80441	0.00949
5627.87573	0.00953
5625.94705	0.00956
5624.01838	0.00957
5622.08970	0.00957
5620.16103	0.00959
5618.23235	0.00962
5616.30368	0.00963
5614.37500	0.00965
5612.44632	0.00969
5610.51765	0.00972
5608.58897	0.00973
5606.66030	0.00973
5604.73162	0.00973
5602.80295	0.00973
5600.87427	0.00975
5598.94559	0.00976
5597.01692	0.00977
5595.08824	0.00979
5593.15957	0.00982
5591.23089	0.00983
5589.30222	0.00984
5587.37354	0.00987
5585.44486	0.00990
5583.51619	0.00994
5581.58751	0.00996
5579.65884	0.00997
5577.73016	0.00999
5575.80149	0.01001
5573.87281	0.01002
5571.94413	0.01004
5570.01546	0.01007
5568.08678	0.01011
5566.15811	0.01014
5564.22943	0.01015
5562.30076	0.01016
5560.37208	0.01016
5558.44340	0.01017
5556.51473	0.01018
5554.58605	0.01019
5552.65738	0.01021
5550.72870	0.01025
5548.80003	0.01028
5546.87135	0.01030
5544.94267	0.01032
5543.01400	0.01034
5541.08532	0.01034
5539.15665	0.01035
5537.22797	0.01037
5535.29930	0.01040
5533.37062	0.01042
5531.44194	0.01043
5529.51327	0.01044
5527.58459	0.01047
5525.65592	0.01050
5523.72724	0.01052
5521.79857	0.01054
5519.86989	0.01055
5517.94121	0.01057
5516.01254	0.01059
5514.08386	0.01061
5512.15519	0.01063
5510.22651	0.01067
5508.29784	0.01071
5506.36916	0.01074
5504.44048	0.01076
5502.51181	0.01077
5500.58313	0.01079
5498.65446	0.01081
5496.72578	0.01083
5494.79711	0.01083
5492.86843	0.01085
5490.93975	0.01090
5489.01108	0.01093
5487.08240	0.01094
5485.15373	0.01093
5483.22505	0.01095
5481.29638	0.01098
5479.36770	0.01101
5477.43902	0.01101
5475.51035	0.01101
5473.58167	0.01103
5471.65300	0.01107
5469.72432	0.01112
5467.79565	0.01116
5465.86697	0.01117
5463.93829	0.01118
5462.00962	0.01119
5460.08094	0.01121
5458.15227	0.01124
5456.22359	0.01126
5454.29492	0.01128
5452.36624	0.01128
5450.43756	0.01129
5448.50889	0.01131
5446.58021	0.01133
5444.65154	0.01136
5442.72286	0.01139
5440.79419	0.01141
5438.86551	0.01143
5436.93683	0.01145
5435.00816	0.01146
5433.07948	0.01149
5431.15081	0.01153
5429.22213	0.01155
5427.29346	0.01156
5425.36478	0.01158
5423.43610	0.01161
5421.50743	0.01163
5419.57875	0.01164
5417.65008	0.01166
5415.72140	0.01169
5413.79273	0.01170
5411.86405	0.01171
5409.93537	0.01172
5408.00670	0.01174
5406.07802	0.01178
5404.14935	0.01183
5402.22067	0.01187
5400.29200	0.01188
5398.36332	0.01189
5396.43464	0.01190
5394.50597	0.01189
5392.57729	0.01190
5390.64862	0.01192
5388.71994	0.01196
5386.79127	0.01201
5384.86259	0.01205
5382.93391	0.01207
5381.00524	0.01207
5379.07656	0.01207
5377.14789	0.01209
5375.21921	0.01213
5373.29054	0.01217
5371.36186	0.01220
5369.43318	0.01222
5367.50451	0.01224
5365.57583	0.01225
5363.64716	0.01226
5361.71848	0.01228
5359.78981	0.01232
5357.86113	0.01234
5355.93245	0.01234
5354.00378	0.01235
5352.07510	0.01238
5350.14643	0.01241
5348.21775	0.01244
5346.28908	0.01246
5344.36040	0.01249
5342.43172	0.01252
5340.50305	0.01253
5338.57437	0.01253
5336.64570	0.01256
5334.71702	0.01261
5332.78835	0.01264
5330.85967	0.01265
5328.93099	0.01267
5327.00232	0.01269
5325.07364	0.01272
5323.14497	0.01277
5321.21629	0.01280
5319.28762	0.01282
5317.35894	0.01284
5315.43026	0.01286
5313.50159	0.01287
5311.57291	0.01287
5309.64424	0.01288
5307.71556	0.01290
5305.78689	0.01292
5303.85821	0.01295
5301.92953	0.01298
5300.00086	0.01300
5298.07218	0.01302
5296.14351	0.01305
5294.21483	0.01308
5292.28616	0.01312
5290.35748	0.01315
5288.42880	0.01317
5286.50013	0.01320
5284.57145	0.01322
5282.64278	0.01322
5280.71410	0.01323
5278.78543	0.01324
5276.85675	0.01327
5274.92807	0.01331
5272.99940	0.01333
5271.07072	0.01335
5269.14205	0.01336
5267.21337	0.01338
5265.28470	0.01340
5263.35602	0.01344
5261.42734	0.01347
5259.49867	0.01350
5257.56999	0.01353
5255.64132	0.01357
5253.71264	0.01360
5251.78397	0.01361
5249.85529	0.01363
5247.92661	0.01364
5245.99794	0.01366
5244.06926	0.01369
5242.14059	0.01374
5240.21191	0.01377
5238.28324	0.01379
5236.35456	0.01379
5234.42588	0.01380
5232.49721	0.01382
5230.56853	0.01385
5228.63986	0.01387
5226.71118	0.01389
5224.78251	0.01391
5222.85383	0.01395
5220.92515	0.01397
5218.99648	0.01400
5217.06780	0.01403
5215.13913	0.01404
5213.21045	0.01405
5211.28178	0.01407
5209.35310	0.01411
5207.42442	0.01413
5205.49575	0.01415
5203.56707	0.01417
5201.63840	0.01420
5199.70972	0.01422
5197.78105	0.01424
5195.85237	0.01426
5193.92369	0.01430
5191.99502	0.01432
5190.06634	0.01432
5188.13767	0.01434
5186.20899	0.01438
5184.28032	0.01443
5182.35164	0.01447
5180.42296	0.01450
5178.49429	0.01452
5176.56561	0.01455
5174.63694	0.01458
5172.70826	0.01459
5170.77959	0.01461
5168.85091	0.01465
5166.92223	0.01469
5164.99356	0.01470
5163.06488	0.01472
5161.13621	0.01474
5159.20753	0.01475
5157.27886	0.01475
5155.35018	0.01478
5153.42150	0.01482
5151.49283	0.01486
5149.56415	0.01490
5147.63548	0.01494
5145.70680	0.01494
5143.77813	0.01495
5141.84945	0.01498
5139.92077	0.01501
5137.99210	0.01503
5136.06342	0.01504
5134.13475	0.01506
5132.20607	0.01510
5130.27740	0.01513
5128.34872	0.01515
5126.42004	0.01517
5124.49137	0.01518
5122.56269	0.01520
5120.63402	0.01522
5118.70534	0.01526
5116.77667	0.01530
5114.84799	0.01533
5112.91931	0.01534
5110.99064	0.01535
5109.06196	0.01537
5107.13329	0.01540
5105.20461	0.01544
5103.27594	0.01549
5101.34726	0.01552
5099.41858	0.01554
5097.48991	0.01558
5095.56123	0.01562
5093.63256	0.01564
5091.70388	0.01566
5089.77521	0.01569
5087.84653	0.01571
5085.91785	0.01573
5083.98918	0.01574
5082.06050	0.01576
5080.13183	0.01578
5078.20315	0.01579
5076.27448	0.01582
5074.34580	0.01584
5072.41712	0.01588
5070.48845	0.01591
5068.55977	0.01595
5066.63110	0.01598
5064.70242	0.01598
5062.77375	0.01598
5060.84507	0.01602
5058.91639	0.01605
5056.98772	0.01607
5055.05904	0.01610
5053.13037	0.01614
5051.20169	0.01620
5049.27302	0.01623
5047.34434	0.01625
5045.41566	0.01628
5043.48699	0.01632
5041.55831	0.01634
5039.62964	0.01634
5037.70096	0.01636
5035.77229	0.01639
5033.84361	0.01642
5031.91493	0.01644
5029.98626	0.01646
5028.05758	0.01649
5026.12891	0.01652
5024.20023	0.01656
5022.27156	0.01659
5020.34288	0.01662
5018.41420	0.01664
5016.48553	0.01665
5014.55685	0.01668
5012.62818	0.01671
5010.69950	0.01675
5008.77083	0.01677
5006.84215	0.01680
5004.91347	0.01682
5002.98480	0.01684
5001.05612	0.01685
4999.12745	0.01687
4997.19877	0.01690
4995.27010	0.01694
4993.34142	0.01697
4991.41274	0.01700
4989.48407	0.01704
4987.55539	0.01707
4985.62672	0.01709
4983.69804	0.01709
4981.76937	0.01711
4979.84069	0.01714
4977.91201	0.01718
4975.98334	0.01722
4974.05466	0.01726
4972.12599	0.01730
4970.19731	0.01733
4968.26864	0.01736
4966.33996	0.01737
4964.41128	0.01738
4962.48261	0.01740
4960.55393	0.01743
4958.62526	0.01748
4956.69658	0.01753
4954.76791	0.01755
4952.83923	0.01756
4950.91055	0.01758
4948.98188	0.01762
4947.05320	0.01765
4945.12453	0.01768
4943.19585	0.01770
4941.26718	0.01773
4939.33850	0.01774
4937.40982	0.01775
4935.48115	0.01778
4933.55247	0.01782
4931.62380	0.01785
4929.69512	0.01788
4927.76645	0.01794
4925.83777	0.01799
4923.90909	0.01801
4921.98042	0.01802
4920.05174	0.01803
4918.12307	0.01806
4916.19439	0.01807
4914.26572	0.01808
4912.33704	0.01811
4910.40836	0.01816
4908.47969	0.01820
4906.55101	0.01823
4904.62234	0.01825
4902.69366	0.01829
4900.76499	0.01831
4898.83631	0.01834
4896.90763	0.01838
4894.97896	0.01841
4893.05028	0.01844
4891.12161	0.01847
4889.19293	0.01849
4887.26426	0.01852
4885.33558	0.01856
4883.40690	0.01859
4881.47823	0.01862
4879.54955	0.01865
4877.62088	0.01868
4875.69220	0.01871
4873.76353	0.01872
4871.83485	0.01874
4869.90617	0.01878
4867.97750	0.01883
4866.04882	0.01887
4864.12015	0.01890
4862.19147	0.01892
4860.26280	0.01894
4858.33412	0.01896
4856.40544	0.01898
4854.47677	0.01899
4852.54809	0.01902
4850.61942	0.01906
4848.69074	0.01911
4846.76207	0.01916
4844.83339	0.01919
4842.90471	0.01922
4840.97604	0.01924
4839.04736	0.01924
4837.11869	0.01925
4835.19001	0.01928
4833.26134	0.01933
4831.33266	0.01937
4829.40398	0.01940
4827.47531	0.01944
4825.54663	0.01949
4823.61796	0.01952
4821.68928	0.01955
4819.76061	0.01959
4817.83193	0.01961
4815.90325	0.01962
4813.97458	0.01965
4812.04590	0.01968
4810.11723	0.01971
4808.18855	0.01974
4806.25988	0.01978
4804.33120	0.01981
4802.40252	0.01982
4800.47385	0.01984
4798.54517	0.01986
4796.61650	0.01989
4794.68782	0.01995
4792.75915	0.01999
4790.83047	0.02002
4788.90179	0.02006
4786.97312	0.02009
4785.04444	0.02011
4783.11577	0.02014
4781.18709	0.02017
4779.25842	0.02020
4777.32974	0.02025
4775.40106	0.02030
4773.47239	0.02033
4771.54371	0.02035
4769.61504	0.02037
4767.68636	0.02040
4765.75769	0.02043
4763.82901	0.02046
4761.90033	0.02047
4759.97166	0.02050
4758.04298	0.02056
4756.11431	0.02062
4754.18563	0.02067
4752.25696	0.02070
4750.32828	0.02073
4748.39960	0.02075
4746.47093	0.02079
4744.54225	0.02081
4742.61358	0.02081
4740.68490	0.02084
4738.75623	0.02089
4736.82755	0.02093
4734.89887	0.02096
4732.97020	0.02099
4731.04152	0.02103
4729.11285	0.02107
4727.18417	0.02110
4725.25550	0.02113
4723.32682	0.02116
4721.39814	0.02120
4719.46947	0.02123
4717.54079	0.02126
4715.61212	0.02130
4713.68344	0.02132
4711.75477	0.02133
4709.82609	0.02137
4707.89741	0.02144
4705.96874	0.02149
4704.04006	0.02152
4702.11139	0.02155
4700.18271	0.02160
4698.25404	0.02164
4696.32536	0.02165
4694.39668	0.02167
4692.46801	0.02170
4690.53933	0.02172
4688.61066	0.02176
4686.68198	0.02180
4684.75331	0.02184
4682.82463	0.02187
4680.89595	0.02191
4678.96728	0.02194
4677.03860	0.02197
4675.10993	0.02199
4673.18125	0.02201
4671.25258	0.02204
4669.32390	0.02208
4667.39522	0.02215
4665.46655	0.02222
4663.53787	0.02227
4661.60920	0.02230
4659.68052	0.02231
4657.75185	0.02233
4655.82317	0.02236
4653.89449	0.02241
4651.96582	0.02245
4650.03714	0.02249
4648.10847	0.02252
4646.17979	0.02255
4644.25112	0.02258
4642.32244	0.02261
4640.39376	0.02265
4638.46509	0.02269
4636.53641	0.02273
4634.60774	0.02277
4632.67906	0.02281
4630.75039	0.02284
4628.82171	0.02288
4626.89303	0.02294
4624.96436	0.02298
4623.03568	0.02298
4621.10701	0.02300
4619.17833	0.02305
4617.24966	0.02311
4615.32098	0.02317
4613.39230	0.02322
4611.46363	0.02325
4609.53495	0.02328
4607.60628	0.02332
4605.67760	0.02335
4603.74893	0.02338
4601.82025	0.02342
4599.89157	0.02345
4597.96290	0.02348
4596.03422	0.02352
4594.10555	0.02356
4592.17687	0.02359
4590.24820	0.02364
4588.31952	0.02369
4586.39084	0.02372
4584.46217	0.02376
4582.53349	0.02380
4580.60482	0.02384
4578.67614	0.02389
4576.74747	0.02394
4574.81879	0.02398
4572.89011	0.02399
4570.96144	0.02401
4569.03276	0.02404
4567.10409	0.02408
4565.17541	0.02413
4563.24674	0.02418
4561.31806	0.02421
4559.38938	0.02423
4557.46071	0.02427
4555.53203	0.02432
4553.60336	0.02438
4551.67468	0.02443
4549.74601	0.02449
4547.81733	0.02454
4545.88865	0.02458
4543.95998	0.02460
4542.03130	0.02462
4540.10263	0.02465
4538.17395	0.02472
4536.24528	0.02479
4534.31660	0.02485
4532.38792	0.02488
4530.45925	0.02491
4528.53057	0.02494
4526.60190	0.02498
4524.67322	0.02502
4522.74455	0.02506
4520.81587	0.02512
4518.88719	0.02517
4516.95852	0.02521
4515.02984	0.02524
4513.10117	0.02527
4511.17249	0.02531
4509.24382	0.02534
4507.31514	0.02537
4505.38646	0.02540
4503.45779	0.02545
4501.52911	0.02551
4499.60044	0.02555
4497.67176	0.02559
4495.74309	0.02563
4493.81441	0.02568
4491.88573	0.02572
4489.95706	0.02574
4488.02838	0.02579
4486.09971	0.02583
4484.17103	0.02586
4482.24236	0.02590
4480.31368	0.02595
4478.38500	0.02599
4476.45633	0.02603
4474.52765	0.02609
4472.59898	0.02615
4470.67030	0.02621
4468.74163	0.02626
4466.81295	0.02629
4464.88427	0.02633
4462.95560	0.02639
4461.02692	0.02645
4459.09825	0.02649
4457.16957	0.02654
4455.24090	0.02659
4453.31222	0.02663
4451.38354	0.02667
4449.45487	0.02669
4447.52619	0.02671
4445.59752	0.02676
4443.66884	0.02684
4441.74017	0.02692
4439.81149	0.02696
4437.88281	0.02697
4435.95414	0.02700
4434.02546	0.02705
4432.09679	0.02711
4430.16811	0.02716
4428.23944	0.02720
4426.31076	0.02725
4424.38208	0.02729
4422.45341	0.02734
4420.52473	0.02738
4418.59606	0.02743
4416.66738	0.02749
4414.73871	0.02754
4412.81003	0.02759
4410.88135	0.02763
4408.95268	0.02768
4407.02400	0.02770
4405.09533	0.02773
4403.16665	0.02778
4401.23798	0.02786
4399.30930	0.02794
4397.38062	0.02800
4395.45195	0.02803
4393.52327	0.02806
4391.59460	0.02810
4389.66592	0.02815
4387.73725	0.02820
4385.80857	0.02825
4383.87989	0.02831
4381.95122	0.02837
4380.02254	0.02841
4378.09387	0.02844
4376.16519	0.02849
4374.23652	0.02855
4372.30784	0.02860
4370.37916	0.02864
4368.45049	0.02870
4366.52181	0.02876
4364.59314	0.02881
4362.66446	0.02887
4360.73579	0.02892
4358.80711	0.02898
4356.87843	0.02902
4354.94976	0.02906
4353.02108	0.02912
4351.09241	0.02919
4349.16373	0.02925
4347.23506	0.02931
4345.30638	0.02937
4343.37770	0.02940
4341.44903	0.02942
4339.52035	0.02948
4337.59168	0.02954
4335.66300	0.02958
4333.73433	0.02961
4331.80565	0.02966
4329.87697	0.02972
4327.94830	0.02980
4326.01962	0.02987
4324.09095	0.02992
4322.16227	0.02997
4320.23360	0.03003
4318.30492	0.03007
4316.37624	0.03011
4314.44757	0.03016
4312.51889	0.03024
4310.59022	0.03030
4308.66154	0.03034
4306.73287	0.03038
4304.80419	0.03044
4302.87551	0.03049
4300.94684	0.03054
4299.01816	0.03059
4297.08949	0.03065
4295.16081	0.03072
4293.23214	0.03078
4291.30346	0.03083
4289.37478	0.03088
4287.44611	0.03095
4285.51743	0.03103
4283.58876	0.03109
4281.66008	0.03115
4279.73141	0.03119
4277.80273	0.03123
4275.87405	0.03129
4273.94538	0.03136
4272.01670	0.03141
4270.08803	0.03147
4268.15935	0.03155
4266.23068	0.03163
4264.30200	0.03168
4262.37332	0.03172
4260.44465	0.03176
4258.51597	0.03180
4256.58730	0.03183
4254.65862	0.03189
4252.72995	0.03197
4250.80127	0.03205
4248.87259	0.03214
4246.94392	0.03221
4245.01524	0.03228
4243.08657	0.03233
4241.15789	0.03237
4239.22922	0.03238
4237.30054	0.03241
4235.37186	0.03248
4233.44319	0.03254
4231.51451	0.03260
4229.58584	0.03266
4227.65716	0.03275
4225.72849	0.03283
4223.79981	0.03289
4221.87113	0.03292
4219.94246	0.03297
4218.01378	0.03303
4216.08511	0.03308
4214.15643	0.03315
4212.22776	0.03325
4210.29908	0.03334
4208.37040	0.03338
4206.44173	0.03341
4204.51305	0.03346
4202.58438	0.03352
4200.65570	0.03359
4198.72703	0.03365
4196.79835	0.03373
4194.86968	0.03381
4192.94100	0.03388
4191.01232	0.03393
4189.08365	0.03400
4187.15497	0.03407
4185.22630	0.03413
4183.29762	0.03418
4181.36895	0.03423
4179.44027	0.03430
4177.51159	0.03438
4175.58292	0.03445
4173.65424	0.03452
4171.72557	0.03460
4169.79689	0.03465
4167.86822	0.03468
4165.93954	0.03473
4164.01086	0.03480
4162.08219	0.03489
4160.15351	0.03495
4158.22484	0.03500
4156.29616	0.03506
4154.36749	0.03514
4152.43881	0.03522
4150.51013	0.03530
4148.58146	0.03537
4146.65278	0.03542
4144.72411	0.03546
4142.79543	0.03550
4140.86676	0.03556
4138.93808	0.03563
4137.00940	0.03570
4135.08073	0.03577
4133.15205	0.03585
4131.22338	0.03592
4129.29470	0.03598
4127.36603	0.03604
4125.43735	0.03610
4123.50867	0.03617
4121.58000	0.03625
4119.65132	0.03632
4117.72265	0.03640
4115.79397	0.03647
4113.86530	0.03653
4111.93662	0.03658
4110.00794	0.03667
4108.07927	0.03676
4106.15059	0.03684
4104.22192	0.03689
4102.29324	0.03696
4100.36457	0.03704
4098.43589	0.03711
4096.50721	0.03717
4094.57854	0.03723
4092.64986	0.03729
4090.72119	0.03736
4088.79251	0.03743
4086.86384	0.03752
4084.93516	0.03761
4083.00648	0.03769
4081.07781	0.03773
4079.14913	0.03777
4077.22046	0.03785
4075.29178	0.03794
4073.36311	0.03802
4071.43443	0.03809
4069.50575	0.03816
4067.57708	0.03823
4065.64840	0.03829
4063.71973	0.03837
4061.79105	0.03847
4059.86238	0.03856
4057.93370	0.03861
4056.00502	0.03865
4054.07635	0.03872
4052.14767	0.03881
4050.21900	0.03891
4048.29032	0.03898
4046.36165	0.03904
4044.43297	0.03910
4042.50429	0.03918
4040.57562	0.03927
4038.64694	0.03933
4036.71827	0.03940
4034.78959	0.03948
4032.86092	0.03955
4030.93224	0.03961
4029.00356	0.03969
4027.07489	0.03977
4025.14621	0.03984
4023.21754	0.03992
4021.28886	0.04001
4019.36019	0.04007
4017.43151	0.04014
4015.50283	0.04024
4013.57416	0.04033
4011.64548	0.04039
4009.71681	0.04043
4007.78813	0.04049
4005.85946	0.04057
4003.93078	0.04065
4002.00210	0.04072
4000.07343	0.04081
3998.14475	0.04090
3996.21608	0.04097
3994.28740	0.04104
3992.35873	0.04110
3990.43005	0.04117
3988.50137	0.04126
3986.57270	0.04136
3984.64402	0.04147
3982.71535	0.04158
3980.78667	0.04166
3978.85800	0.04171
3976.92932	0.04177
3975.00064	0.04184
3973.07197	0.04193
3971.14329	0.04203
3969.21462	0.04214
3967.28594	0.04223
3965.35727	0.04228
3963.42859	0.04232
3961.49991	0.04237
3959.57124	0.04247
3957.64256	0.04260
3955.71389	0.04270
3953.78521	0.04277
3951.85654	0.04282
3949.92786	0.04286
3947.99918	0.04292
3946.07051	0.04299
3944.14183	0.04307
3942.21316	0.04318
3940.28448	0.04331
3938.35581	0.04340
3936.42713	0.04344
3934.49845	0.04346
3932.56978	0.04350
3930.64110	0.04361
3928.71243	0.04372
3926.78375	0.04381
3924.85508	0.04390
3922.92640	0.04400
3920.99772	0.04408
3919.06905	0.04413
3917.14037	0.04420
3915.21170	0.04431
3913.28302	0.04443
3911.35435	0.04453
3909.42567	0.04460
3907.49699	0.04458
3905.56832	0.04454
3903.63964	0.04455
3901.71097	0.04464
3899.78229	0.04477
3897.85362	0.04494
3895.92494	0.04510
3893.99626	0.04517
3892.06759	0.04522
3890.13891	0.04532
3888.21024	0.04538
3886.28156	0.04540
3884.35289	0.04547
3882.42421	0.04558
3880.49553	0.04568
3878.56686	0.04582
3876.63818	0.04592
3874.70951	0.04597
3872.78083	0.04602
3870.85216	0.04606
3868.92348	0.04615
3866.99480	0.04629
3865.06613	0.04638
3863.13745	0.04647
3861.20878	0.04660
3859.28010	0.04672
3857.35143	0.04668
3855.42275	0.04651
3853.49407	0.04648
3851.56540	0.04675
3849.63672	0.04710
3847.70805	0.04731
3845.77937	0.04740
3843.85070	0.04744
3841.92202	0.04746
3839.99334	0.04746
3838.06467	0.04751
3836.13599	0.04765
3834.20732	0.04780
3832.27864	0.04793
3830.34997	0.04803
3828.42129	0.04814
3826.49261	0.04824
3824.56394	0.04828
3822.63526	0.04828
3820.70659	0.04832
3818.77791	0.04841
3816.84924	0.04850
3814.92056	0.04867
3812.99188	0.04889
3811.06321	0.04903
3809.13453	0.04903
3807.20586	0.04905
3805.27718	0.04913
3803.34851	0.04917
3801.41983	0.04921
3799.49115	0.04936
3797.56248	0.04956
3795.63380	0.04973
3793.70513	0.04989
3791.77645	0.05002
3789.84778	0.05010
3787.91910	0.05018
3785.99042	0.05025
3784.06175	0.05030
3782.13307	0.05035
3780.20440	0.05041
3778.27572	0.05054
3776.34705	0.05069
3774.41837	0.05078
3772.48969	0.05082
3770.56102	0.05087
3768.63234	0.05098
3766.70367	0.05110
3764.77499	0.05121
3762.84632	0.05129
3760.91764	0.05134
3758.98896	0.05142
3757.06029	0.05152
3755.13161	0.05155
3753.20294	0.05145
3751.27426	0.05138
3749.34559	0.05146
3747.41691	0.05156
3745.48823	0.05157
3743.55956	0.05174
3741.63088	0.05209
3739.70221	0.05227
3737.77353	0.05221
3735.84486	0.05220
3733.91618	0.05233
3731.98750	0.05256
3730.05883	0.05278
3728.13015	0.05292
3726.20148	0.05299
3724.27280	0.05308
3722.34413	0.05320
3720.41545	0.05334
3718.48677	0.05345
3716.55810	0.05352
3714.62942	0.05352
3712.70075	0.05350
3710.77207	0.05359
3708.84340	0.05378
3706.91472	0.05397
3704.98604	0.05410
3703.05737	0.05418
3701.12869	0.05429
3699.20002	0.05445
3697.27134	0.05456
3695.34267	0.05459
3693.41399	0.05456
3691.48531	0.05451
3689.55664	0.05454
3687.62796	0.05471
3685.69929	0.05496
3683.77061	0.05516
3681.84194	0.05525
3679.91326	0.05526
3677.98458	0.05518
3676.05591	0.05513
3674.12723	0.05524
3672.19856	0.05539
3670.26988	0.05553
3668.34121	0.05573
3666.41253	0.05592
3664.48385	0.05605
3662.55518	0.05616
3660.62650	0.05626
3658.69783	0.05628
3656.76915	0.05629
3654.84048	0.05634
3652.91180	0.05634
3650.98312	0.05619
3649.05445	0.05609
3647.12577	0.05621
3645.19710	0.05649
3643.26842	0.05677
3641.33975	0.05697
3639.41107	0.05708
3637.48239	0.05715
3635.55372	0.05722
3633.62504	0.05728
3631.69637	0.05725
3629.76769	0.05718
3627.83902	0.05728
3625.91034	0.05752
3623.98166	0.05770
3622.05299	0.05772
3620.12431	0.05768
3618.19564	0.05771
3616.26696	0.05781
3614.33829	0.05788
3612.40961	0.05794
3610.48093	0.05800
3608.55226	0.05808
3606.62358	0.05823
3604.69491	0.05837
3602.76623	0.05845
3600.83756	0.05851
3598.90888	0.05861
3596.98020	0.05870
3595.05153	0.05877
3593.12285	0.05884
3591.19418	0.05885
3589.26550	0.05882
3587.33683	0.05889
3585.40815	0.05907
3583.47947	0.05925
3581.55080	0.05935
3579.62212	0.05943
3577.69345	0.05952
3575.76477	0.05962
3573.83610	0.05970
3571.90742	0.05974
3569.97874	0.05971
3568.05007	0.05970
3566.12139	0.05981
3564.19272	0.06000
3562.26404	0.06014
3560.33537	0.06021
3558.40669	0.06028
3556.47801	0.06034
3554.54934	0.06039
3552.62066	0.06046
3550.69199	0.06058
3548.76331	0.06067
3546.83464	0.06072
3544.90596	0.06078
3542.97728	0.06086
3541.04861	0.06093
3539.11993	0.06098
3537.19126	0.06103
3535.26258	0.06109
3533.33391	0.06114
3531.40523	0.06117
3529.47655	0.06121
3527.54788	0.06125
3525.61920	0.06130
3523.69053	0.06135
3521.76185	0.06141
3519.83318	0.06147
3517.90450	0.06151
3515.97582	0.06156
3514.04715	0.06161
3512.11847	0.06164
3510.18980	0.06167
3508.26112	0.06171
3506.33245	0.06176
3504.40377	0.06178
3502.47509	0.06182
3500.54642	0.06188
3498.61774	0.06192
3496.68907	0.06193
3494.76039	0.06194
3492.83172	0.06197
3490.90304	0.06201
3488.97436	0.06205
3487.04569	0.06208
3485.11701	0.06213
3483.18834	0.06216
3481.25966	0.06218
3479.33099	0.06222
3477.40231	0.06229
3475.47363	0.06238
3473.54496	0.06248
3471.61628	0.06260
3469.68761	0.06270
3467.75893	0.06279
3465.83026	0.06286
3463.90158	0.06294
3461.97290	0.06302
3460.04423	0.06312
3458.11555	0.06323
3456.18688	0.06336
3454.25820	0.06346
3452.32953	0.06354
3450.40085	0.06362
3448.47217	0.06372
3446.54350	0.06382
3444.61482	0.06392
3442.68615	0.06402
3440.75747	0.06414
3438.82880	0.06430
3436.90012	0.06448
3434.97144	0.06466
3433.04277	0.06486
3431.11409	0.06506
3429.18542	0.06525
3427.25674	0.06544
3425.32807	0.06564
3423.39939	0.06581
3421.47071	0.06598
3419.54204	0.06617
3417.61336	0.06637
3415.68469	0.06654
3413.75601	0.06669
3411.82734	0.06683
3409.89866	0.06698
3407.96998	0.06712
3406.04131	0.06726
3404.11263	0.06737
3402.18396	0.06750
3400.25528	0.06767
3398.32661	0.06784
3396.39793	0.06797
3394.46925	0.06808
3392.54058	0.06821
3390.61190	0.06837
3388.68323	0.06853
3386.75455	0.06866
3384.82588	0.06878
3382.89720	0.06889
3380.96852	0.06901
3379.03985	0.06915
3377.11117	0.06930
3375.18250	0.06944
3373.25382	0.06957
3371.32515	0.06967
3369.39647	0.06978
3367.46779	0.06988
3365.53912	0.06999
3363.61044	0.07012
3361.68177	0.07027
3359.75309	0.07040
3357.82442	0.07053
3355.89574	0.07066
3353.96706	0.07081
3352.03839	0.07095
3350.10971	0.07107
3348.18104	0.07115
3346.25236	0.07125
3344.32369	0.07137
3342.39501	0.07151
3340.46633	0.07164
3338.53766	0.07177
3336.60898	0.07189
3334.68031	0.07201
3332.75163	0.07215
3330.82296	0.07228
3328.89428	0.07240
3326.96560	0.07252
3325.03693	0.07266
3323.10825	0.07279
3321.17958	0.07291
3319.25090	0.07304
3317.32223	0.07316
3315.39355	0.07326
3313.46487	0.07338
3311.53620	0.07352
3309.60752	0.07365
3307.67885	0.07380
3305.75017	0.07396
3303.82150	0.07412
3301.89282	0.07424
3299.96414	0.07435
3298.03547	0.07447
3296.10679	0.07461
3294.17812	0.07477
3292.24944	0.07490
3290.32077	0.07502
3288.39209	0.07516
3286.46341	0.07531
3284.53474	0.07546
3282.60606	0.07560
3280.67739	0.07572
3278.74871	0.07585
3276.82004	0.07600
3274.89136	0.07614
3272.96268	0.07628
3271.03401	0.07641
3269.10533	0.07652
3267.17666	0.07665
3265.24798	0.07679
3263.31931	0.07692
3261.39063	0.07705
3259.46195	0.07720
3257.53328	0.07736
3255.60460	0.07749
3253.67593	0.07759
3251.74725	0.07769
3249.81858	0.07785
3247.88990	0.07804
3245.96122	0.07820
3244.03255	0.07834
3242.10387	0.07848
3240.17520	0.07859
3238.24652	0.07870
3236.31785	0.07885
3234.38917	0.07902
3232.46049	0.07918
3230.53182	0.07931
3228.60314	0.07945
3226.67447	0.07958
3224.74579	0.07971
3222.81712	0.07983
3220.88844	0.07997
3218.95976	0.08011
3217.03109	0.08024
3215.10241	0.08036
3213.17374	0.08050
3211.24506	0.08066
3209.31639	0.08079
3207.38771	0.08090
3205.45903	0.08103
3203.53036	0.08119
3201.60168	0.08138
3199.67301	0.08155
3197.74433	0.08168
3195.81566	0.08179
3193.88698	0.08193
3191.95830	0.08209
3190.02963	0.08225
3188.10095	0.08240
3186.17228	0.08255
3184.24360	0.08271
3182.31493	0.08286
3180.38625	0.08299
3178.45757	0.08311
3176.52890	0.08324
3174.60022	0.08339
3172.67155	0.08356
3170.74287	0.08373
3168.81420	0.08389
3166.88552	0.08404
3164.95684	0.08418
3163.02817	0.08430
3161.09949	0.08440
3159.17082	0.08453
3157.24214	0.08469
3155.31347	0.08484
3153.38479	0.08496
3151.45611	0.08509
3149.52744	0.08525
3147.59876	0.08542
3145.67009	0.08556
3143.74141	0.08568
3141.81274	0.08583
3139.88406	0.08599
3137.95538	0.08613
3136.02671	0.08625
3134.09803	0.08638
3132.16936	0.08652
3130.24068	0.08668
3128.31201	0.08683
3126.38333	0.08695
3124.45465	0.08707
3122.52598	0.08721
3120.59730	0.08738
3118.66863	0.08755
3116.73995	0.08768
3114.81128	0.08777
3112.88260	0.08789
3110.95392	0.08807
3109.02525	0.08826
3107.09657	0.08844
3105.16790	0.08860
3103.23922	0.08872
3101.31055	0.08884
3099.38187	0.08897
3097.45319	0.08909
3095.52452	0.08922
3093.59584	0.08938
3091.66717	0.08956
3089.73849	0.08971
3087.80982	0.08985
3085.88114	0.08999
3083.95246	0.09016
3082.02379	0.09031
3080.09511	0.09042
3078.16644	0.09049
3076.23776	0.09061
3074.30909	0.09077
3072.38041	0.09093
3070.45173	0.09106
3068.52306	0.09120
3066.59438	0.09137
3064.66571	0.09153
3062.73703	0.09167
3060.80836	0.09178
3058.87968	0.09190
3056.95100	0.09203
3055.02233	0.09218
3053.09365	0.09232
3051.16498	0.09246
3049.23630	0.09261
3047.30763	0.09276
3045.37895	0.09288
3043.45027	0.09301
3041.52160	0.09317
3039.59292	0.09335
3037.66425	0.09352
3035.73557	0.09366
3033.80690	0.09378
3031.87822	0.09391
3029.94954	0.09406
3028.02087	0.09419
3026.09219	0.09433
3024.16352	0.09452
3022.23484	0.09472
3020.30617	0.09487
3018.37749	0.09497
3016.44881	0.09506
3014.52014	0.09519
3012.59146	0.09536
3010.66279	0.09553
3008.73411	0.09568
3006.80544	0.09581
3004.87676	0.09593
3002.94808	0.09606
3001.01941	0.09620
2999.09073	0.09632
2997.16206	0.09645
2995.23338	0.09659
2993.30471	0.09675
2991.37603	0.09690
2989.44735	0.09702
2987.51868	0.09710
2985.59000	0.09719
2983.66133	0.09732
2981.73265	0.09742
2979.80398	0.09749
2977.87530	0.09753
2975.94662	0.09755
2974.01795	0.09757
2972.08927	0.09758
2970.16060	0.09756
2968.23192	0.09754
2966.30325	0.09755
2964.37457	0.09758
2962.44589	0.09766
2960.51722	0.09779
2958.58854	0.09799
2956.65987	0.09822
2954.73119	0.09844
2952.80252	0.09860
2950.87384	0.09872
2948.94516	0.09883
2947.01649	0.09896
2945.08781	0.09909
2943.15914	0.09919
2941.23046	0.09924
2939.30179	0.09926
2937.37311	0.09925
2935.44443	0.09922
2933.51576	0.09918
2931.58708	0.09916
2929.65841	0.09915
2927.72973	0.09913
2925.80106	0.09910
2923.87238	0.09909
2921.94370	0.09917
2920.01503	0.09929
2918.08635	0.09946
2916.15768	0.09974
2914.22900	0.10016
2912.30033	0.10065
2910.37165	0.10110
2908.44297	0.10145
2906.51430	0.10172
2904.58562	0.10196
2902.65695	0.10220
2900.72827	0.10244
2898.79960	0.10265
2896.87092	0.10285
2894.94224	0.10305
2893.01357	0.10324
2891.08489	0.10341
2889.15622	0.10357
2887.22754	0.10373
2885.29887	0.10394
2883.37019	0.10416
2881.44151	0.10432
2879.51284	0.10443
2877.58416	0.10455
2875.65549	0.10469
2873.72681	0.10482
2871.79814	0.10497
2869.86946	0.10509
2867.94078	0.10520
2866.01211	0.10532
2864.08343	0.10544
2862.15476	0.10552
2860.22608	0.10556
2858.29741	0.10557
2856.36873	0.10555
2854.44005	0.10550
2852.51138	0.10546
2850.58270	0.10551
2848.65403	0.10580
2846.72535	0.10632
2844.79668	0.10686
2842.86800	0.10729
2840.93932	0.10762
2839.01065	0.10791
2837.08197	0.10815
2835.15330	0.10835
2833.22462	0.10853
2831.29595	0.10869
2829.36727	0.10885
2827.43859	0.10905
2825.50992	0.10924
2823.58124	0.10938
2821.65257	0.10954
2819.72389	0.10972
2817.79522	0.10988
2815.86654	0.11002
2813.93786	0.11017
2812.00919	0.11033
2810.08051	0.11049
2808.15184	0.11067
2806.22316	0.11084
2804.29449	0.11100
2802.36581	0.11114
2800.43713	0.11128
2798.50846	0.11140
2796.57978	0.11154
2794.65111	0.11172
2792.72243	0.11194
2790.79376	0.11214
2788.86508	0.11229
2786.93640	0.11242
2785.00773	0.11256
2783.07905	0.11271
2781.15038	0.11285
2779.22170	0.11301
2777.29303	0.11316
2775.36435	0.11331
2773.43567	0.11349
2771.50700	0.11370
2769.57832	0.11388
2767.64965	0.11403
2765.72097	0.11417
2763.79230	0.11430
2761.86362	0.11444
2759.93494	0.11460
2758.00627	0.11474
2756.07759	0.11488
2754.14892	0.11503
2752.22024	0.11518
2750.29157	0.11531
2748.36289	0.11546
2746.43421	0.11563
2744.50554	0.11583
2742.57686	0.11601
2740.64819	0.11613
2738.71951	0.11622
2736.79084	0.11636
2734.86216	0.11652
2732.93348	0.11666
2731.00481	0.11678
2729.07613	0.11691
2727.14746	0.11706
2725.21878	0.11721
2723.29011	0.11738
2721.36143	0.11757
2719.43275	0.11775
2717.50408	0.11787
2715.57540	0.11797
2713.64673	0.11811
2711.71805	0.11829
2709.78938	0.11847
2707.86070	0.11863
2705.93202	0.11876
2704.00335	0.11888
2702.07467	0.11900
2700.14600	0.11913
2698.21732	0.11927
2696.28865	0.11944
2694.35997	0.11963
2692.43129	0.11978
2690.50262	0.11992
2688.57394	0.12006
2686.64527	0.12018
2684.71659	0.12032
2682.78792	0.12049
2680.85924	0.12067
2678.93056	0.12082
2677.00189	0.12093
2675.07321	0.12105
2673.14454	0.12118
2671.21586	0.12132
2669.28719	0.12147
2667.35851	0.12164
2665.42983	0.12180
2663.50116	0.12195
2661.57248	0.12209
2659.64381	0.12224
2657.71513	0.12240
2655.78646	0.12253
2653.85778	0.12266
2651.92910	0.12284
2650.00043	0.12304
2648.07175	0.12319
2646.14308	0.12331
2644.21440	0.12346
2642.28573	0.12364
2640.35705	0.12379
2638.42837	0.12394
2636.49970	0.12409
2634.57102	0.12424
2632.64235	0.12440
2630.71367	0.12456
2628.78500	0.12471
2626.85632	0.12487
2624.92764	0.12502
2622.99897	0.12517
2621.07029	0.12532
2619.14162	0.12547
2617.21294	0.12565
2615.28427	0.12586
2613.35559	0.12604
2611.42691	0.12621
2609.49824	0.12635
2607.56956	0.12650
2605.64089	0.12668
2603.71221	0.12686
2601.78354	0.12702
2599.85486	0.12715
2597.92618	0.12728
2595.99751	0.12743
2594.06883	0.12758
2592.14016	0.12772
2590.21148	0.12788
2588.28281	0.12805
2586.35413	0.12822
2584.42545	0.12841
2582.49678	0.12858
2580.56810	0.12870
2578.63943	0.12884
2576.71075	0.12899
2574.78208	0.12914
2572.85340	0.12929
2570.92472	0.12946
2568.99605	0.12963
2567.06737	0.12979
2565.13870	0.12994
2563.21002	0.13010
2561.28135	0.13026
2559.35267	0.13040
2557.42399	0.13054
2555.49532	0.13068
2553.56664	0.13083
2551.63797	0.13099
2549.70929	0.13114
2547.78062	0.13126
2545.85194	0.13138
2543.92326	0.13151
2541.99459	0.13165
2540.06591	0.13183
2538.13724	0.13204
2536.20856	0.13225
2534.27989	0.13241
2532.35121	0.13253
2530.42253	0.13266
2528.49386	0.13282
2526.56518	0.13303
2524.63651	0.13321
2522.70783	0.13334
2520.77916	0.13345
2518.85048	0.13358
2516.92181	0.13372
2514.99313	0.13388
2513.06445	0.13405
2511.13578	0.13426
2509.20710	0.13447
2507.27843	0.13460
2505.34975	0.13471
2503.42108	0.13487
2501.49240	0.13506
2499.56372	0.13525
2497.63505	0.13545
2495.70637	0.13564
2493.77770	0.13581
2491.84902	0.13601
2489.92035	0.13618
2487.99167	0.13631
2486.06299	0.13644
2484.13432	0.13662
2482.20564	0.13682
2480.27697	0.13699
2478.34829	0.13715
2476.41962	0.13733
2474.49094	0.13754
2472.56226	0.13773
2470.63359	0.13789
2468.70491	0.13802
2466.77624	0.13814
2464.84756	0.13829
2462.91889	0.13845
2460.99021	0.13862
2459.06153	0.13881
2457.13286	0.13900
2455.20418	0.13914
2453.27551	0.13929
2451.34683	0.13946
2449.41816	0.13964
2447.48948	0.13982
2445.56080	0.14001
2443.63213	0.14018
2441.70345	0.14031
2439.77478	0.14044
2437.84610	0.14062
2435.91743	0.14083
2433.98875	0.14100
2432.06007	0.14116
2430.13140	0.14135
2428.20272	0.14153
2426.27405	0.14169
2424.34537	0.14186
2422.41670	0.14202
2420.48802	0.14217
2418.55934	0.14231
2416.63067	0.14245
2414.70199	0.14260
2412.77332	0.14275
2410.84464	0.14288
2408.91597	0.14305
2406.98729	0.14325
2405.05861	0.14340
2403.12994	0.14354
2401.20126	0.14369
2399.27259	0.14384
2397.34391	0.14399
2395.41524	0.14419
2393.48656	0.14440
2391.55788	0.14458
2389.62921	0.14473
2387.70053	0.14486
2385.77186	0.14499
2383.84318	0.14515
2381.91451	0.14530
2379.98583	0.14539
2378.05715	0.14542
2376.12848	0.14545
2374.19980	0.14551
2372.27113	0.14556
2370.34245	0.14558
2368.41378	0.14558
2366.48510	0.14563
2364.55642	0.14576
2362.62775	0.14592
2360.69907	0.14609
2358.77040	0.14627
2356.84172	0.14649
2354.91305	0.14678
2352.98437	0.14714
2351.05569	0.14751
2349.12702	0.14778
2347.19834	0.14786
2345.26967	0.14785
2343.34099	0.14788
2341.41232	0.14799
2339.48364	0.14814
2337.55496	0.14829
2335.62629	0.14843
2333.69761	0.14860
2331.76894	0.14879
2329.84026	0.14898
2327.91159	0.14918
2325.98291	0.14935
2324.05423	0.14952
2322.12556	0.14975
2320.19688	0.15001
2318.26821	0.15029
2316.33953	0.15056
2314.41086	0.15081
2312.48218	0.15101
2310.55350	0.15118
2308.62483	0.15133
2306.69615	0.15149
2304.76748	0.15166
2302.83880	0.15184
2300.91013	0.15202
2298.98145	0.15221
2297.05277	0.15239
2295.12410	0.15257
2293.19542	0.15276
2291.26675	0.15295
2289.33807	0.15315
2287.40940	0.15331
2285.48072	0.15345
2283.55204	0.15358
2281.62337	0.15371
2279.69469	0.15387
2277.76602	0.15405
2275.83734	0.15421
2273.90867	0.15435
2271.97999	0.15449
2270.05131	0.15464
2268.12264	0.15482
2266.19396	0.15503
2264.26529	0.15522
2262.33661	0.15537
2260.40794	0.15550
2258.47926	0.15566
2256.55058	0.15585
2254.62191	0.15604
2252.69323	0.15618
2250.76456	0.15632
2248.83588	0.15648
2246.90721	0.15665
2244.97853	0.15681
2243.04985	0.15697
2241.12118	0.15713
2239.19250	0.15733
2237.26383	0.15756
2235.33515	0.15774
2233.40648	0.15787
2231.47780	0.15799
2229.54912	0.15815
2227.62045	0.15834
2225.69177	0.15854
2223.76310	0.15873
2221.83442	0.15889
2219.90575	0.15899
2217.97707	0.15910
2216.04839	0.15926
2214.11972	0.15945
2212.19104	0.15962
2210.26237	0.15978
2208.33369	0.15995
2206.40502	0.16011
2204.47634	0.16026
2202.54766	0.16041
2200.61899	0.16056
2198.69031	0.16071
2196.76164	0.16084
2194.83296	0.16100
2192.90429	0.16117
2190.97561	0.16133
2189.04693	0.16146
2187.11826	0.16161
2185.18958	0.16180
2183.26091	0.16198
2181.33223	0.16214
2179.40356	0.16230
2177.47488	0.16246
2175.54620	0.16261
2173.61753	0.16274
2171.68885	0.16286
2169.76018	0.16305
2167.83150	0.16328
2165.90283	0.16344
2163.97415	0.16356
2162.04547	0.16372
2160.11680	0.16390
2158.18812	0.16409
2156.25945	0.16430
2154.33077	0.16450
2152.40210	0.16464
2150.47342	0.16478
2148.54474	0.16495
2146.61607	0.16515
2144.68739	0.16534
2142.75872	0.16549
2140.83004	0.16563
2138.90137	0.16579
2136.97269	0.16596
2135.04401	0.16611
2133.11534	0.16626
2131.18666	0.16641
2129.25799	0.16660
2127.32931	0.16682
2125.40064	0.16698
2123.47196	0.16708
2121.54328	0.16720
2119.61461	0.16737
2117.68593	0.16755
2115.75726	0.16773
2113.82858	0.16791
2111.89991	0.16811
2109.97123	0.16828
2108.04255	0.16842
2106.11388	0.16858
2104.18520	0.16875
2102.25653	0.16894
2100.32785	0.16918
2098.39918	0.16941
2096.47050	0.16956
2094.54182	0.16964
2092.61315	0.16972
2090.68447	0.16985
2088.75580	0.17003
2086.82712	0.17022
2084.89845	0.17040
2082.96977	0.17057
2081.04109	0.17071
2079.11242	0.17087
2077.18374	0.17105
2075.25507	0.17122
2073.32639	0.17134
2071.39772	0.17151
2069.46904	0.17172
2067.54036	0.17185
2065.61169	0.17194
2063.68301	0.17211
2061.75434	0.17233
2059.82566	0.17251
2057.89699	0.17265
2055.96831	0.17278
2054.03963	0.17294
2052.11096	0.17315
2050.18228	0.17336
2048.25361	0.17354
2046.32493	0.17369
2044.39626	0.17384
2042.46758	0.17396
2040.53890	0.17412
2038.61023	0.17433
2036.68155	0.17454
2034.75288	0.17471
2032.82420	0.17482
2030.89553	0.17497
2028.96685	0.17519
2027.03817	0.17542
2025.10950	0.17560
2023.18082	0.17574
2021.25215	0.17587
2019.32347	0.17600
2017.39480	0.17616
2015.46612	0.17634
2013.53744	0.17652
2011.60877	0.17668
2009.68009	0.17687
2007.75142	0.17707
2005.82274	0.17723
2003.89407	0.17736
2001.96539	0.17751
2000.03671	0.17767
1998.10804	0.17782
1996.17936	0.17794
1994.25069	0.17803
1992.32201	0.17814
1990.39334	0.17834
1988.46466	0.17858
1986.53598	0.17877
1984.60731	0.17889
1982.67863	0.17901
1980.74996	0.17915
1978.82128	0.17930
1976.89261	0.17945
1974.96393	0.17962
1973.03525	0.17979
1971.10658	0.17992
1969.17790	0.18001
1967.24923	0.18013
1965.32055	0.18031
1963.39188	0.18046
1961.46320	0.18057
1959.53452	0.18073
1957.60585	0.18096
1955.67717	0.18113
1953.74850	0.18126
1951.81982	0.18142
1949.89115	0.18157
1947.96247	0.18169
1946.03379	0.18179
1944.10512	0.18191
1942.17644	0.18210
1940.24777	0.18234
1938.31909	0.18254
1936.39042	0.18272
1934.46174	0.18293
1932.53306	0.18310
1930.60439	0.18320
1928.67571	0.18334
1926.74704	0.18354
1924.81836	0.18369
1922.88969	0.18379
1920.96101	0.18392
1919.03233	0.18403
1917.10366	0.18421
1915.17498	0.18448
1913.24631	0.18470
1911.31763	0.18481
1909.38896	0.18494
1907.46028	0.18512
1905.53160	0.18530
1903.60293	0.18543
1901.67425	0.18558
1899.74558	0.18575
1897.81690	0.18586
1895.88823	0.18595
1893.95955	0.18609
1892.03087	0.18625
1890.10220	0.18643
1888.17352	0.18666
1886.24485	0.18687
1884.31617	0.18700
1882.38750	0.18713
1880.45882	0.18730
1878.53014	0.18748
1876.60147	0.18763
1874.67279	0.18779
1872.74412	0.18788
1870.81544	0.18785
1868.88677	0.18786
1866.95809	0.18811
1865.02941	0.18847
1863.10074	0.18876
1861.17206	0.18897
1859.24339	0.18916
1857.31471	0.18933
1855.38604	0.18948
1853.45736	0.18963
1851.52868	0.18979
1849.60001	0.18993
1847.67133	0.18996
1845.74266	0.18987
1843.81398	0.18994
1841.88531	0.19030
1839.95663	0.19066
1838.02795	0.19086
1836.09928	0.19103
1834.17060	0.19121
1832.24193	0.19131
1830.31325	0.19137
1828.38458	0.19154
1826.45590	0.19175
1824.52722	0.19193
1822.59855	0.19215
1820.66987	0.19235
1818.74120	0.19250
1816.81252	0.19267
1814.88385	0.19285
1812.95517	0.19294
1811.02649	0.19303
1809.09782	0.19321
1807.16914	0.19339
1805.24047	0.19341
1803.31179	0.19335
1801.38312	0.19337
1799.45444	0.19361
1797.52576	0.19392
1795.59709	0.19405
1793.66841	0.19397
1791.73974	0.19404
1789.81106	0.19436
1787.88239	0.19464
1785.95371	0.19473
1784.02503	0.19483
1782.09636	0.19493
1780.16768	0.19502
1778.23901	0.19517
1776.31033	0.19526
1774.38166	0.19518
1772.45298	0.19508
1770.52430	0.19513
1768.59563	0.19537
1766.66695	0.19572
1764.73828	0.19596
1762.80960	0.19600
1760.88093	0.19607
1758.95225	0.19621
1757.02357	0.19627
1755.09490	0.19624
1753.16622	0.19603
1751.23755	0.19577
1749.30887	0.19581
1747.38020	0.19604
1745.45152	0.19617
1743.52284	0.19616
1741.59417	0.19610
1739.66549	0.19611
1737.73682	0.19616
1735.80814	0.19596
1733.87947	0.19583
1731.95079	0.19618
1730.02211	0.19666
1728.09344	0.19696
1726.16476	0.19717
1724.23609	0.19733
1722.30741	0.19740
1720.37874	0.19720
1718.45006	0.19689
1716.52138	0.19697
1714.59271	0.19748
1712.66403	0.19801
1710.73536	0.19829
1708.80668	0.19831
1706.87801	0.19823
1704.94933	0.19823
1703.02065	0.19808
1701.09198	0.19777
1699.16330	0.19776
1697.23463	0.19798
1695.30595	0.19824
1693.37728	0.19861
1691.44860	0.19884
1689.51992	0.19884
1687.59125	0.19865
1685.66257	0.19826
1683.73390	0.19815
1681.80522	0.19851
1679.87655	0.19887
1677.94787	0.19885
1676.01919	0.19868
1674.09052	0.19869
1672.16184	0.19879
1670.23317	0.19882
1668.30449	0.19902
1666.37582	0.19932
1664.44714	0.19935
1662.51846	0.19932
1660.58979	0.19947
1658.66111	0.19958
1656.73244	0.19929
1654.80376	0.19859
1652.87509	0.19828
1650.94641	0.19872
1649.01773	0.19904
1647.08906	0.19907
1645.16038	0.19940
1643.23171	0.19992
1641.30303	0.20013
1639.37436	0.19998
1637.44568	0.19968
1635.51700	0.19962
1633.58833	0.19995
1631.65965	0.20025
1629.73098	0.20027
1627.80230	0.20021
1625.87363	0.20006
1623.94495	0.19971
1622.01627	0.19938
1620.08760	0.19929
1618.15892	0.19946
1616.23025	0.20001
1614.30157	0.20075
1612.37290	0.20130
1610.44422	0.20163
1608.51554	0.20192
1606.58687	0.20219
1604.65819	0.20241
1602.72952	0.20260
1600.80084	0.20281
1598.87217	0.20303
1596.94349	0.20321
1595.01481	0.20338
1593.08614	0.20357
1591.15746	0.20375
1589.22879	0.20390
1587.30011	0.20407
1585.37144	0.20425
1583.44276	0.20444
1581.51408	0.20456
1579.58541	0.20450
1577.65673	0.20429
1575.72806	0.20430
1573.79938	0.20461
1571.87071	0.20477
1569.94203	0.20477
1568.01335	0.20495
1566.08468	0.20525
1564.15600	0.20544
1562.22733	0.20521
1560.29865	0.20461
1558.36998	0.20448
1556.44130	0.20510
1554.51262	0.20577
1552.58395	0.20608
1550.65527	0.20621
1548.72660	0.20635
1546.79792	0.20638
1544.86925	0.20613
1542.94057	0.20577
1541.01189	0.20563
1539.08322	0.20595
1537.15454	0.20648
1535.22587	0.20669
1533.29719	0.20673
1531.36852	0.20700
1529.43984	0.20723
1527.51116	0.20720
1525.58249	0.20705
1523.65381	0.20680
1521.72514	0.20661
1519.79646	0.20675
1517.86779	0.20705
1515.93911	0.20731
1514.01043	0.20753
1512.08176	0.20755
1510.15308	0.20725
1508.22441	0.20686
1506.29573	0.20697
1504.36706	0.20763
1502.43838	0.20809
1500.50970	0.20799
1498.58103	0.20772
1496.65235	0.20770
1494.72368	0.20792
1492.79500	0.20796
1490.86633	0.20771
1488.93765	0.20757
1487.00897	0.20770
1485.08030	0.20785
1483.15162	0.20783
1481.22295	0.20766
1479.29427	0.20736
1477.36560	0.20687
1475.43692	0.20629
1473.50824	0.20585
1471.57957	0.20573
1469.65089	0.20577
1467.72222	0.20555
1465.79354	0.20512
1463.86487	0.20495
1461.93619	0.20490
1460.00751	0.20438
1458.07884	0.20362
1456.15016	0.20348
1454.22149	0.20397
1452.29281	0.20437
1450.36414	0.20446
1448.43546	0.20443
1446.50678	0.20449
1444.57811	0.20467
1442.64943	0.20485
1440.72076	0.20493
1438.79208	0.20478
1436.86341	0.20468
1434.93473	0.20500
1433.00605	0.20542
1431.07738	0.20554
1429.14870	0.20557
1427.22003	0.20569
1425.29135	0.20579
1423.36268	0.20576
1421.43400	0.20551
1419.50532	0.20527
1417.57665	0.20547
1415.64797	0.20590
1413.71930	0.20609
1411.79062	0.20609
1409.86195	0.20609
1407.93327	0.20606
1406.00459	0.20597
1404.07592	0.20593
1402.14724	0.20590
1400.21857	0.20574
1398.28989	0.20554
1396.36122	0.20541
1394.43254	0.20541
1392.50386	0.20551
1390.57519	0.20549
1388.64651	0.20519
1386.71784	0.20485
1384.78916	0.20467
1382.86049	0.20465
1380.93181	0.20472
1379.00313	0.20479
1377.07446	0.20480
1375.14578	0.20476
1373.21711	0.20477
1371.28843	0.20483
1369.35976	0.20481
1367.43108	0.20472
1365.50240	0.20460
1363.57373	0.20448
1361.64505	0.20451
1359.71638	0.20470
1357.78770	0.20488
1355.85903	0.20493
1353.93035	0.20494
1352.00167	0.20496
1350.07300	0.20503
1348.14432	0.20512
1346.21565	0.20520
1344.28697	0.20524
1342.35830	0.20523
1340.42962	0.20515
1338.50094	0.20505
1336.57227	0.20499
1334.64359	0.20495
1332.71492	0.20488
1330.78624	0.20476
1328.85757	0.20458
1326.92889	0.20438
1325.00021	0.20422
1323.07154	0.20412
1321.14286	0.20399
1319.21419	0.20381
1317.28551	0.20362
1315.35684	0.20341
1313.42816	0.20319
1311.49948	0.20301
1309.57081	0.20286
1307.64213	0.20271
1305.71346	0.20247
1303.78478	0.20219
1301.85611	0.20193
1299.92743	0.20170
1297.99875	0.20155
1296.07008	0.20145
1294.14140	0.20133
1292.21273	0.20115
1290.28405	0.20089
1288.35538	0.20059
1286.42670	0.20035
1284.49802	0.20017
1282.56935	0.20002
1280.64067	0.19982
1278.71200	0.19952
1276.78332	0.19914
1274.85465	0.19870
1272.92597	0.19818
1270.99729	0.19753
1269.06862	0.19671
1267.13994	0.19578
1265.21127	0.19496
1263.28259	0.19438
1261.35392	0.19411
1259.42524	0.19415
1257.49656	0.19433
1255.56789	0.19447
1253.63921	0.19449
1251.71054	0.19439
1249.78186	0.19417
1247.85319	0.19385
1245.92451	0.19348
1243.99583	0.19310
1242.06716	0.19271
1240.13848	0.19226
1238.20981	0.19174
1236.28113	0.19117
1234.35246	0.19057
1232.42378	0.18998
1230.49510	0.18940
1228.56643	0.18886
1226.63775	0.18839
1224.70908	0.18798
1222.78040	0.18756
1220.85173	0.18705
1218.92305	0.18648
1216.99437	0.18593
1215.06570	0.18540
1213.13702	0.18483
1211.20835	0.18423
1209.27967	0.18365
1207.35100	0.18308
1205.42232	0.18249
1203.49364	0.18186
1201.56497	0.18127
1199.63629	0.18073
1197.70762	0.18020
1195.77894	0.17963
1193.85027	0.17897
1191.92159	0.17824
1189.99291	0.17751
1188.06424	0.17681
1186.13556	0.17609
1184.20689	0.17535
1182.27821	0.17457
1180.34954	0.17372
1178.42086	0.17289
1176.49218	0.17205
1174.56351	0.17118
1172.63483	0.17028
1170.70616	0.16939
1168.77748	0.16851
1166.84881	0.16771
1164.92013	0.16694
1162.99145	0.16611
1161.06278	0.16524
1159.13410	0.16437
1157.20543	0.16353
1155.27675	0.16272
1153.34808	0.16194
1151.41940	0.16114
1149.49072	0.16029
1147.56205	0.15942
1145.63337	0.15859
1143.70470	0.15776
1141.77602	0.15684
1139.84735	0.15581
1137.91867	0.15471
1135.98999	0.15354
1134.06132	0.15218
1132.13264	0.15054
1130.20397	0.14864
1128.27529	0.14654
1126.34662	0.14427
1124.41794	0.14189
1122.48926	0.13950
1120.56059	0.13715
1118.63191	0.13485
1116.70324	0.13272
1114.77456	0.13083
1112.84589	0.12919
1110.91721	0.12783
1108.98853	0.12680
1107.05986	0.12612
1105.13118	0.12575
1103.20251	0.12566
1101.27383	0.12579
1099.34516	0.12615
1097.41648	0.12673
1095.48780	0.12749
1093.55913	0.12833
1091.63045	0.12920
1089.70178	0.13007
1087.77310	0.13090
1085.84443	0.13160
1083.91575	0.13206
1081.98707	0.13235
1080.05840	0.13262
1078.12972	0.13285
1076.20105	0.13301
1074.27237	0.13318
1072.34370	0.13332
1070.41502	0.13341
1068.48634	0.13347
1066.55767	0.13353
1064.62899	0.13368
1062.70032	0.13394
1060.77164	0.13420
1058.84297	0.13443
1056.91429	0.13465
1054.98561	0.13489
1053.05694	0.13518
1051.12826	0.13553
1049.19959	0.13588
1047.27091	0.13625
1045.34224	0.13667
1043.41356	0.13714
1041.48488	0.13758
1039.55621	0.13794
1037.62753	0.13826
1035.69886	0.13861
1033.77018	0.13900
1031.84151	0.13938
1029.91283	0.13971
1027.98415	0.14004
1026.05548	0.14036
1024.12680	0.14067
1022.19813	0.14101
1020.26945	0.14142
1018.34078	0.14190
1016.41210	0.14238
1014.48342	0.14289
1012.55475	0.14347
1010.62607	0.14407
1008.69740	0.14462
1006.76872	0.14517
1004.84005	0.14572
1002.91137	0.14618
1000.98269	0.14652
999.05402	0.14681
997.12534	0.14701
995.19667	0.14715
993.26799	0.14730
991.33932	0.14738
989.41064	0.14736
987.48196	0.14737
985.55329	0.14746
983.62461	0.14754
981.69594	0.14754
979.76726	0.14742
977.83859	0.14724
975.90991	0.14705
973.98123	0.14686
972.05256	0.14665
970.12388	0.14647
968.19521	0.14633
966.26653	0.14617
964.33786	0.14599
962.40918	0.14586
960.48050	0.14571
958.55183	0.14547
956.62315	0.14520
954.69448	0.14502
952.76580	0.14489
950.83713	0.14469
948.90845	0.14446
946.97977	0.14428
945.05110	0.14408
943.12242	0.14383
941.19375	0.14354
939.26507	0.14314
937.33640	0.14260
935.40772	0.14206
933.47904	0.14160
931.55037	0.14118
929.62169	0.14071
927.69302	0.14016
925.76434	0.13960
923.83567	0.13901
921.90699	0.13842
919.97831	0.13785
918.04964	0.13723
916.12096	0.13653
914.19229	0.13577
912.26361	0.13496
910.33494	0.13418
908.40626	0.13348
906.47758	0.13285
904.54891	0.13227
902.62023	0.13171
900.69156	0.13113
898.76288	0.13056
896.83421	0.13000
894.90553	0.12941
892.97685	0.12882
891.04818	0.12834
889.11950	0.12795
887.19083	0.12756
885.26215	0.12718
883.33348	0.12680
881.40480	0.12639
879.47612	0.12602
877.54745	0.12576
875.61877	0.12554
873.69010	0.12532
871.76142	0.12513
869.83275	0.12495
867.90407	0.12471
865.97539	0.12442
864.04672	0.12418
862.11804	0.12404
860.18937	0.12399
858.26069	0.12392
856.33202	0.12382
854.40334	0.12367
852.47466	0.12346
850.54599	0.12320
848.61731	0.12288
846.68864	0.12253
844.75996	0.12228
842.83129	0.12211
840.90261	0.12186
838.97394	0.12142
837.04526	0.12079
835.11658	0.12002
833.18791	0.11920
831.25923	0.11834
829.33056	0.11736
827.40188	0.11632
825.47321	0.11536
823.54453	0.11446
821.61585	0.11360
819.68718	0.11281
817.75850	0.11215
815.82983	0.11171
813.90115	0.11147
811.97248	0.11128
810.04380	0.11105
808.11512	0.11087
806.18645	0.11081
804.25777	0.11079
802.32910	0.11066
800.40042	0.11033
798.47175	0.10974
796.54307	0.10905
794.61439	0.10848
792.68572	0.10814
790.75704	0.10798
788.82837	0.10789
786.89969	0.10769
784.97102	0.10735
783.04234	0.10698
781.11366	0.10661
779.18499	0.10623
777.25631	0.10589
775.32764	0.10563
773.39896	0.10538
771.47029	0.10509
769.54161	0.10474
767.61293	0.10431
765.68426	0.10385
763.75558	0.10339
761.82691	0.10291
759.89823	0.10243
757.96956	0.10197
756.04088	0.10145
754.11220	0.10084
752.18353	0.10021
750.25485	0.09956
748.32618	0.09881
746.39750	0.09795
744.46883	0.09705
742.54015	0.09618
740.61147	0.09539
738.68280	0.09484
736.75412	0.09460
734.82545	0.09461
732.89677	0.09470
730.96810	0.09472
729.03942	0.09463
727.11074	0.09462
725.18207	0.09478
723.25339	0.09497
721.32472	0.09509
719.39604	0.09523
717.46737	0.09552
715.53869	0.09599
713.61001	0.09655
711.68134	0.09701
709.75266	0.09720
707.82399	0.09712
705.89531	0.09699
703.96664	0.09682
702.03796	0.09649
700.10928	0.09604
698.18061	0.09560
696.25193	0.09518
694.32326	0.09461
692.39458	0.09392
690.46591	0.09326
688.53723	0.09272
686.60855	0.09228
684.67988	0.09180
682.75120	0.09123
680.82253	0.09068
678.89385	0.09017
676.96518	0.08962
675.03650	0.08899
673.10782	0.08831
671.17915	0.08755
669.25047	0.08660
667.32180	0.08565
665.39312	0.08490
663.46445	0.08417
661.53577	0.08329
659.60709	0.08237
657.67842	0.08153
655.74974	0.08080
653.82107	0.08013
651.89239	0.07944
649.96372	0.07860
648.03504	0.07770
646.10636	0.07688
644.17769	0.07601
642.24901	0.07494
640.32034	0.07379
638.39166	0.07272
636.46299	0.07169
634.53431	0.07050
632.60563	0.06889
630.67696	0.06651
628.74828	0.06293
626.81961	0.05842
624.89093	0.05399
622.96226	0.05047
621.03358	0.04828
619.10490	0.04718
617.17623	0.04637
615.24755	0.04543
613.31888	0.04433
611.39020	0.04329
609.46153	0.04276
607.53285	0.04284
605.60417	0.04326
603.67550	0.04387
601.74682	0.04463
599.81815	0.04550
597.88947	0.04629
595.96080	0.04691
594.03212	0.04739
592.10344	0.04774
590.17477	0.04794
588.24609	0.04799
586.31742	0.04790
584.38874	0.04766
582.46007	0.04727
580.53139	0.04679
578.60271	0.04632
576.67404	0.04589
574.74536	0.04537
572.81669	0.04472
570.88801	0.04404
568.95934	0.04345
567.03066	0.04299
565.10198	0.04260
563.17331	0.04228
561.24463	0.04210
559.31596	0.04193
557.38728	0.04168
555.45861	0.04140
553.52993	0.04115
551.60125	0.04093
549.67258	0.04068
547.74390	0.04043
545.81523	0.04029
543.88655	0.04028
541.95788	0.04026
540.02920	0.04014
538.10052	0.03998
536.17185	0.03974
534.24317	0.03933
532.31450	0.03884
530.38582	0.03854
528.45715	0.03840
526.52847	0.03821
524.59979	0.03787
522.67112	0.03742
520.74244	0.03696
518.81377	0.03647
516.88509	0.03587
514.95642	0.03528
513.02774	0.03490
511.09906	0.03468
509.17039	0.03444
507.24171	0.03415
505.31304	0.03389
503.38436	0.03366
501.45569	0.03334
499.52701	0.03287
497.59833	0.03223
495.66966	0.03157
493.74098	0.03110
491.81231	0.03073
489.88363	0.03024
487.95496	0.02959
486.02628	0.02893
484.09760	0.02835
482.16893	0.02782
480.24025	0.02731
478.31158	0.02672
476.38290	0.02608
474.45423	0.02547
472.52555	0.02485
470.59687	0.02431
468.66820	0.02395
466.73952	0.02373
464.81085	0.02361
462.88217	0.02355
460.95350	0.02343
459.02482	0.02328
457.09614	0.02315
455.16747	0.02307
453.23879	0.02299
451.31012	0.02286
449.38144	0.02274
447.45277	0.02269
445.52409	0.02265
443.59541	0.02251
441.66674	0.02221
439.73806	0.02175
437.80939	0.02130
435.88071	0.02088
433.95204	0.02033
432.02336	0.01971
430.09468	0.01918
428.16601	0.01865
426.23733	0.01797
424.30866	0.01725
422.37998	0.01661
420.45131	0.01594
418.52263	0.01520
416.59395	0.01448
414.66528	0.01380
412.73660	0.01315
410.80793	0.01257
408.87925	0.01203
406.95058	0.01145
405.02190	0.01083
403.09322	0.01021
401.16455	0.00958
399.23587	0.00892
397.30720	0.00830
395.37852	0.00778
393.44985	0.00736
391.52117	0.00696
389.59249	0.00653
387.66382	0.00609
385.73514	0.00571
383.80647	0.00533
381.87779	0.00497
379.94912	0.00459
378.02044	0.00414
376.09176	0.00366
374.16309	0.00330
372.23441	0.00300
370.30574	0.00269
368.37706	0.00243
