7496.76250	0.00124
7494.83382	0.00124
7492.90514	0.00122
7490.97647	0.00121
7489.04779	0.00122
7487.11912	0.00123
7485.19044	0.00124
7483.26177	0.00123
7481.33309	0.00122
7479.40441	0.00122
7477.47574	0.00123
7475.54706	0.00124
7473.61839	0.00125
7471.68971	0.00126
7469.76104	0.00127
7467.83236	0.00127
7465.90368	0.00126
7463.97501	0.00126
7462.04633	0.00126
7460.11766	0.00126
7458.18898	0.00126
7456.26031	0.00127
7454.33163	0.00127
7452.40295	0.00126
7450.47428	0.00126
7448.54560	0.00127
7446.61693	0.00128
7444.68825	0.00129
7442.75958	0.00130
7440.83090	0.00130
7438.90222	0.00130
7436.97355	0.00132
7435.04487	0.00134
7433.11620	0.00134
7431.18752	0.00132
7429.25885	0.00130
7427.33017	0.00131
7425.40149	0.00133
7423.47282	0.00134
7421.54414	0.00136
7419.61547	0.00136
7417.68679	0.00136
7415.75812	0.00136
7413.82944	0.00136
7411.90076	0.00136
7409.97209	0.00137
7408.04341	0.00138
7406.11474	0.00138
7404.18606	0.00137
7402.25739	0.00136
7400.32871	0.00136
7398.40003	0.00138
7396.47136	0.00138
7394.54268	0.00138
7392.61401	0.00137
7390.68533	0.00136
7388.75666	0.00136
7386.82798	0.00136
7384.89930	0.00137
7382.97063	0.00138
7381.04195	0.00140
7379.11328	0.00142
7377.18460	0.00143
7375.25593	0.00143
7373.32725	0.00142
7371.39857	0.00144
7369.46990	0.00145
7367.54122	0.00145
7365.61255	0.00145
7363.68387	0.00145
7361.75520	0.00145
7359.82652	0.00146
7357.89784	0.00146
7355.96917	0.00145
7354.04049	0.00144
7352.11182	0.00143
7350.18314	0.00145
7348.25447	0.00147
7346.32579	0.00148
7344.39711	0.00148
7342.46844	0.00148
7340.53976	0.00148
7338.61109	0.00147
7336.68241	0.00148
7334.75374	0.00149
7332.82506	0.00149
7330.89638	0.00149
7328.96771	0.00150
7327.03903	0.00152
7325.11036	0.00152
7323.18168	0.00152
7321.25301	0.00152
7319.32433	0.00152
7317.39565	0.00152
7315.46698	0.00152
7313.53830	0.00152
7311.60963	0.00153
7309.68095	0.00155
7307.75228	0.00156
7305.82360	0.00157
7303.89492	0.00158
7301.96625	0.00158
7300.03757	0.00159
7298.10890	0.00159
7296.18022	0.00157
7294.25155	0.00157
7292.32287	0.00158
7290.39419	0.00158
7288.46552	0.00157
7286.53684	0.00157
7284.60817	0.00158
7282.67949	0.00158
7280.75082	0.00158
7278.82214	0.00158
7276.89346	0.00158
7274.96479	0.00159
7273.03611	0.00161
7271.10744	0.00163
7269.17876	0.00163
7267.25009	0.00162
7265.32141	0.00163
7263.39273	0.00164
7261.46406	0.00164
7259.53538	0.00163
7257.60671	0.00163
7255.67803	0.00165
7253.74936	0.00166
7251.82068	0.00166
7249.89200	0.00166
7247.96333	0.00167
7246.03465	0.00167
7244.10598	0.00167
7242.17730	0.00167
7240.24863	0.00166
7238.31995	0.00166
7236.39127	0.00164
7234.46260	0.00164
7232.53392	0.00165
7230.60525	0.00167
7228.67657	0.00169
7226.74790	0.00171
7224.81922	0.00171
7222.89054	0.00171
7220.96187	0.00172
7219.03319	0.00173
7217.10452	0.00173
7215.17584	0.00173
7213.24717	0.00173
7211.31849	0.00174
7209.38981	0.00175
7207.46114	0.00175
7205.53246	0.00176
7203.60379	0.00177
7201.67511	0.00178
7199.74644	0.00177
7197.81776	0.00176
7195.88908	0.00176
7193.96041	0.00175
7192.03173	0.00175
7190.10306	0.00176
7188.17438	0.00179
7186.24571	0.00180
7184.31703	0.00181
7182.38835	0.00180
7180.45968	0.00179
7178.53100	0.00179
7176.60233	0.00181
7174.67365	0.00182
7172.74498	0.00183
7170.81630	0.00183
7168.88762	0.00184
7166.95895	0.00185
7165.03027	0.00186
7163.10160	0.00185
7161.17292	0.00183
7159.24425	0.00183
7157.31557	0.00184
7155.38689	0.00186
7153.45822	0.00186
7151.52954	0.00186
7149.60087	0.00187
7147.67219	0.00188
7145.74352	0.00188
7143.81484	0.00188
7141.88616	0.00188
7139.95749	0.00189
7138.02881	0.00189
7136.10014	0.00188
7134.17146	0.00188
7132.24279	0.00189
7130.31411	0.00189
7128.38543	0.00189
7126.45676	0.00190
7124.52808	0.00191
7122.59941	0.00192
7120.67073	0.00192
7118.74206	0.00192
7116.81338	0.00192
7114.88470	0.00193
7112.95603	0.00194
7111.02735	0.00195
7109.09868	0.00195
7107.17000	0.00193
7105.24133	0.00193
7103.31265	0.00196
7101.38397	0.00199
7099.45530	0.00200
7097.52662	0.00199
7095.59795	0.00197
7093.66927	0.00197
7091.74060	0.00199
7089.81192	0.00202
7087.88324	0.00203
7085.95457	0.00202
7084.02589	0.00202
7082.09722	0.00202
7080.16854	0.00201
7078.23987	0.00201
7076.31119	0.00202
7074.38251	0.00202
7072.45384	0.00201
7070.52516	0.00201
7068.59649	0.00202
7066.66781	0.00204
7064.73914	0.00204
7062.81046	0.00206
7060.88178	0.00208
7058.95311	0.00209
7057.02443	0.00209
7055.09576	0.00209
7053.16708	0.00208
7051.23841	0.00208
7049.30973	0.00209
7047.38105	0.00209
7045.45238	0.00209
7043.52370	0.00209
7041.59503	0.00211
7039.66635	0.00212
7037.73768	0.00212
7035.80900	0.00212
7033.88032	0.00212
7031.95165	0.00213
7030.02297	0.00214
7028.09430	0.00214
7026.16562	0.00215
7024.23695	0.00215
7022.30827	0.00215
7020.37959	0.00214
7018.45092	0.00214
7016.52224	0.00216
7014.59357	0.00218
7012.66489	0.00218
7010.73622	0.00219
7008.80754	0.00218
7006.87886	0.00218
7004.95019	0.00218
7003.02151	0.00219
7001.09284	0.00220
6999.16416	0.00220
6997.23549	0.00220
6995.30681	0.00220
6993.37813	0.00220
6991.44946	0.00221
6989.52078	0.00222
6987.59211	0.00223
6985.66343	0.00224
6983.73476	0.00225
6981.80608	0.00223
6979.87740	0.00222
6977.94873	0.00221
6976.02005	0.00223
6974.09138	0.00226
6972.16270	0.00229
6970.23403	0.00230
6968.30535	0.00229
6966.37667	0.00227
6964.44800	0.00227
6962.51932	0.00229
6960.59065	0.00231
6958.66197	0.00231
6956.73330	0.00230
6954.80462	0.00230
6952.87594	0.00231
6950.94727	0.00232
6949.01859	0.00233
6947.08992	0.00233
6945.16124	0.00232
6943.23257	0.00231
6941.30389	0.00231
6939.37521	0.00232
6937.44654	0.00235
6935.51786	0.00237
6933.58919	0.00238
6931.66051	0.00238
6929.73184	0.00237
6927.80316	0.00238
6925.87448	0.00238
6923.94581	0.00238
6922.01713	0.00239
6920.08846	0.00240
6918.15978	0.00240
6916.23111	0.00239
6914.30243	0.00240
6912.37375	0.00242
6910.44508	0.00244
6908.51640	0.00244
6906.58773	0.00244
6904.65905	0.00244
6902.73038	0.00242
6900.80170	0.00241
6898.87302	0.00243
6896.94435	0.00245
6895.01567	0.00247
6893.08700	0.00246
6891.15832	0.00245
6889.22965	0.00245
6887.30097	0.00247
6885.37229	0.00249
6883.44362	0.00250
6881.51494	0.00250
6879.58627	0.00250
6877.65759	0.00251
6875.72892	0.00252
6873.80024	0.00253
6871.87156	0.00254
6869.94289	0.00253
6868.01421	0.00253
6866.08554	0.00252
6864.15686	0.00253
6862.22819	0.00254
6860.29951	0.00255
6858.37083	0.00255
6856.44216	0.00255
6854.51348	0.00255
6852.58481	0.00257
6850.65613	0.00257
6848.72746	0.00258
6846.79878	0.00259
6844.87010	0.00261
6842.94143	0.00262
6841.01275	0.00262
6839.08408	0.00262
6837.15540	0.00263
6835.22673	0.00264
6833.29805	0.00264
6831.36937	0.00264
6829.44070	0.00265
6827.51202	0.00264
6825.58335	0.00265
6823.65467	0.00268
6821.72600	0.00270
6819.79732	0.00270
6817.86864	0.00270
6815.93997	0.00269
6814.01129	0.00267
6812.08262	0.00266
6810.15394	0.00267
6808.22527	0.00269
6806.29659	0.00270
6804.36791	0.00271
6802.43924	0.00272
6800.51056	0.00273
6798.58189	0.00275
6796.65321	0.00277
6794.72454	0.00279
6792.79586	0.00279
6790.86718	0.00279
6788.93851	0.00278
6787.00983	0.00278
6785.08116	0.00278
6783.15248	0.00278
6781.22381	0.00278
6779.29513	0.00279
6777.36645	0.00279
6775.43778	0.00280
6773.50910	0.00281
6771.58043	0.00281
6769.65175	0.00282
6767.72308	0.00283
6765.79440	0.00283
6763.86572	0.00284
6761.93705	0.00285
6760.00837	0.00286
6758.07970	0.00288
6756.15102	0.00290
6754.22235	0.00289
6752.29367	0.00288
6750.36499	0.00288
6748.43632	0.00288
6746.50764	0.00288
6744.57897	0.00289
6742.65029	0.00290
6740.72162	0.00290
6738.79294	0.00291
6736.86426	0.00291
6734.93559	0.00292
6733.00691	0.00293
6731.07824	0.00294
6729.14956	0.00294
6727.22089	0.00294
6725.29221	0.00294
6723.36353	0.00295
6721.43486	0.00295
6719.50618	0.00297
6717.57751	0.00300
6715.64883	0.00302
6713.72016	0.00301
6711.79148	0.00300
6709.86280	0.00301
6707.93413	0.00301
6706.00545	0.00301
6704.07678	0.00301
6702.14810	0.00302
6700.21943	0.00303
6698.29075	0.00304
6696.36207	0.00305
6694.43340	0.00306
6692.50472	0.00307
6690.57605	0.00308
6688.64737	0.00308
6686.71870	0.00308
6684.79002	0.00308
6682.86134	0.00307
6680.93267	0.00308
6679.00399	0.00309
6677.07532	0.00309
6675.14664	0.00310
6673.21797	0.00311
6671.28929	0.00312
6669.36061	0.00314
6667.43194	0.00315
6665.50326	0.00316
6663.57459	0.00315
6661.64591	0.00314
6659.71724	0.00315
6657.78856	0.00317
6655.85988	0.00319
6653.93121	0.00321
6652.00253	0.00322
6650.07386	0.00322
6648.14518	0.00322
6646.21651	0.00323
6644.28783	0.00324
6642.35915	0.00325
6640.43048	0.00326
6638.50180	0.00325
6636.57313	0.00324
6634.64445	0.00325
6632.71578	0.00327
6630.78710	0.00328
6628.85842	0.00328
6626.92975	0.00328
6625.00107	0.00329
6623.07240	0.00330
6621.14372	0.00332
6619.21505	0.00333
6617.28637	0.00333
6615.35769	0.00334
6613.42902	0.00335
6611.50034	0.00336
6609.57167	0.00335
6607.64299	0.00335
6605.71432	0.00336
6603.78564	0.00337
6601.85696	0.00338
6599.92829	0.00338
6597.99961	0.00338
6596.07094	0.00338
6594.14226	0.00339
6592.21359	0.00341
6590.28491	0.00343
6588.35623	0.00345
6586.42756	0.00345
6584.49888	0.00345
6582.57021	0.00344
6580.64153	0.00345
6578.71286	0.00346
6576.78418	0.00347
6574.85550	0.00347
6572.92683	0.00349
6570.99815	0.00350
6569.06948	0.00351
6567.14080	0.00351
6565.21213	0.00351
6563.28345	0.00351
6561.35477	0.00352
6559.42610	0.00353
6557.49742	0.00354
6555.56875	0.00356
6553.64007	0.00358
6551.71140	0.00360
6549.78272	0.00359
6547.85404	0.00359
6545.92537	0.00359
6543.99669	0.00359
6542.06802	0.00360
6540.13934	0.00361
6538.21067	0.00362
6536.28199	0.00362
6534.35331	0.00362
6532.42464	0.00362
6530.49596	0.00364
6528.56729	0.00365
6526.63861	0.00367
6524.70994	0.00368
6522.78126	0.00367
6520.85258	0.00367
6518.92391	0.00366
6516.99523	0.00367
6515.06656	0.00368
6513.13788	0.00369
6511.20921	0.00370
6509.28053	0.00372
6507.35185	0.00375
6505.42318	0.00376
6503.49450	0.00377
6501.56583	0.00378
6499.63715	0.00378
6497.70848	0.00378
6495.77980	0.00379
6493.85112	0.00379
6491.92245	0.00381
6489.99377	0.00382
6488.06510	0.00383
6486.13642	0.00385
6484.20775	0.00385
6482.27907	0.00385
6480.35039	0.00386
6478.42172	0.00387
6476.49304	0.00386
6474.56437	0.00386
6472.63569	0.00388
6470.70702	0.00390
6468.77834	0.00391
6466.84966	0.00390
6464.92099	0.00390
6462.99231	0.00392
6461.06364	0.00396
6459.13496	0.00397
6457.20629	0.00397
6455.27761	0.00397
6453.34893	0.00396
6451.42026	0.00395
6449.49158	0.00395
6447.56291	0.00397
6445.63423	0.00398
6443.70556	0.00398
6441.77688	0.00399
6439.84820	0.00402
6437.91953	0.00405
6435.99085	0.00408
6434.06218	0.00408
6432.13350	0.00406
6430.20483	0.00406
6428.27615	0.00407
6426.34747	0.00409
6424.41880	0.00410
6422.49012	0.00411
6420.56145	0.00411
6418.63277	0.00411
6416.70410	0.00412
6414.77542	0.00415
6412.84674	0.00416
6410.91807	0.00416
6408.98939	0.00416
6407.06072	0.00417
6405.13204	0.00417
6403.20337	0.00417
6401.27469	0.00418
6399.34601	0.00419
6397.41734	0.00421
6395.48866	0.00422
6393.55999	0.00422
6391.63131	0.00422
6389.70264	0.00424
6387.77396	0.00425
6385.84528	0.00425
6383.91661	0.00426
6381.98793	0.00428
6380.05926	0.00430
6378.13058	0.00431
6376.20191	0.00430
6374.27323	0.00430
6372.34455	0.00430
6370.41588	0.00431
6368.48720	0.00432
6366.55853	0.00435
6364.62985	0.00437
6362.70118	0.00438
6360.77250	0.00438
6358.84382	0.00438
6356.91515	0.00440
6354.98647	0.00440
6353.05780	0.00439
6351.12912	0.00439
6349.20045	0.00441
6347.27177	0.00444
6345.34309	0.00447
6343.41442	0.00448
6341.48574	0.00447
6339.55707	0.00446
6337.62839	0.00447
6335.69972	0.00449
6333.77104	0.00451
6331.84236	0.00453
6329.91369	0.00454
6327.98501	0.00455
6326.05634	0.00456
6324.12766	0.00457
6322.19899	0.00458
6320.27031	0.00458
6318.34163	0.00457
6316.41296	0.00457
6314.48428	0.00460
6312.55561	0.00463
6310.62693	0.00464
6308.69826	0.00464
6306.76958	0.00465
6304.84090	0.00466
6302.91223	0.00466
6300.98355	0.00466
6299.05488	0.00467
6297.12620	0.00468
6295.19753	0.00469
6293.26885	0.00470
6291.34017	0.00472
6289.41150	0.00473
6287.48282	0.00476
6285.55415	0.00477
6283.62547	0.00477
6281.69680	0.00476
6279.76812	0.00477
6277.83944	0.00478
6275.91077	0.00479
6273.98209	0.00480
6272.05342	0.00480
6270.12474	0.00481
6268.19607	0.00483
6266.26739	0.00486
6264.33871	0.00488
6262.41004	0.00489
6260.48136	0.00488
6258.55269	0.00488
6256.62401	0.00489
6254.69534	0.00490
6252.76666	0.00490
6250.83798	0.00490
6248.90931	0.00490
6246.98063	0.00491
6245.05196	0.00494
6243.12328	0.00497
6241.19461	0.00498
6239.26593	0.00497
6237.33725	0.00497
6235.40858	0.00498
6233.47990	0.00501
6231.55123	0.00503
6229.62255	0.00504
6227.69388	0.00506
6225.76520	0.00507
6223.83652	0.00507
6221.90785	0.00509
6219.97917	0.00510
6218.05050	0.00511
6216.12182	0.00512
6214.19315	0.00514
6212.26447	0.00515
6210.33579	0.00516
6208.40712	0.00517
6206.47844	0.00518
6204.54977	0.00519
6202.62109	0.00520
6200.69242	0.00523
6198.76374	0.00524
6196.83506	0.00524
6194.90639	0.00524
6192.97771	0.00525
6191.04904	0.00526
6189.12036	0.00528
6187.19169	0.00530
6185.26301	0.00531
6183.33433	0.00532
6181.40566	0.00533
6179.47698	0.00534
6177.54831	0.00534
6175.61963	0.00534
6173.69096	0.00536
6171.76228	0.00537
6169.83360	0.00538
6167.90493	0.00538
6165.97625	0.00539
6164.04758	0.00540
6162.11890	0.00541
6160.19023	0.00542
6158.26155	0.00544
6156.33287	0.00546
6154.40420	0.00549
6152.47552	0.00551
6150.54685	0.00552
6148.61817	0.00551
6146.68950	0.00550
6144.76082	0.00549
6142.83214	0.00549
6140.90347	0.00552
6138.97479	0.00557
6137.04612	0.00561
6135.11744	0.00562
6133.18877	0.00561
6131.26009	0.00560
6129.33141	0.00560
6127.40274	0.00562
6125.47406	0.00565
6123.54539	0.00567
6121.61671	0.00568
6119.68804	0.00569
6117.75936	0.00569
6115.83068	0.00569
6113.90201	0.00570
6111.97333	0.00572
6110.04466	0.00573
6108.11598	0.00572
6106.18731	0.00572
6104.25863	0.00574
6102.32995	0.00578
6100.40128	0.00581
6098.47260	0.00581
6096.54393	0.00579
6094.61525	0.00580
6092.68658	0.00583
6090.75790	0.00585
6088.82922	0.00586
6086.90055	0.00587
6084.97187	0.00588
6083.04320	0.00589
6081.11452	0.00589
6079.18585	0.00590
6077.25717	0.00592
6075.32849	0.00594
6073.39982	0.00596
6071.47114	0.00597
6069.54247	0.00597
6067.61379	0.00599
6065.68512	0.00604
6063.75644	0.00607
6061.82776	0.00608
6059.89909	0.00607
6057.97041	0.00608
6056.04174	0.00609
6054.11306	0.00610
6052.18439	0.00611
6050.25571	0.00613
6048.32703	0.00614
6046.39836	0.00613
6044.46968	0.00612
6042.54101	0.00613
6040.61233	0.00617
6038.68366	0.00621
6036.75498	0.00623
6034.82630	0.00623
6032.89763	0.00623
6030.96895	0.00623
6029.04028	0.00624
6027.11160	0.00626
6025.18293	0.00628
6023.25425	0.00629
6021.32557	0.00629
6019.39690	0.00629
6017.46822	0.00629
6015.53955	0.00631
6013.61087	0.00634
6011.68220	0.00637
6009.75352	0.00640
6007.82484	0.00642
6005.89617	0.00640
6003.96749	0.00640
6002.03882	0.00643
6000.11014	0.00647
5998.18147	0.00648
5996.25279	0.00648
5994.32411	0.00649
5992.39544	0.00651
5990.46676	0.00653
5988.53809	0.00654
5986.60941	0.00656
5984.68074	0.00657
5982.75206	0.00659
5980.82338	0.00659
5978.89471	0.00658
5976.96603	0.00660
5975.03736	0.00663
5973.10868	0.00666
5971.18001	0.00669
5969.25133	0.00670
5967.32265	0.00668
5965.39398	0.00667
5963.46530	0.00669
5961.53663	0.00673
5959.60795	0.00676
5957.67928	0.00677
5955.75060	0.00678
5953.82192	0.00679
5951.89325	0.00678
5949.96457	0.00678
5948.03590	0.00679
5946.10722	0.00682
5944.17855	0.00684
5942.24987	0.00684
5940.32119	0.00685
5938.39252	0.00687
5936.46384	0.00691
5934.53517	0.00694
5932.60649	0.00695
5930.67782	0.00694
5928.74914	0.00693
5926.82046	0.00692
5924.89179	0.00695
5922.96311	0.00698
5921.03444	0.00700
5919.10576	0.00702
5917.17709	0.00702
5915.24841	0.00703
5913.31973	0.00705
5911.39106	0.00708
5909.46238	0.00711
5907.53371	0.00711
5905.60503	0.00711
5903.67636	0.00711
5901.74768	0.00712
5899.81900	0.00715
5897.89033	0.00719
5895.96165	0.00722
5894.03298	0.00722
5892.10430	0.00720
5890.17563	0.00719
5888.24695	0.00721
5886.31827	0.00724
5884.38960	0.00727
5882.46092	0.00729
5880.53225	0.00730
5878.60357	0.00731
5876.67490	0.00734
5874.74622	0.00736
5872.81755	0.00737
5870.88887	0.00740
5868.96019	0.00743
5867.03152	0.00743
5865.10284	0.00742
5863.17417	0.00743
5861.24549	0.00744
5859.31682	0.00748
5857.38814	0.00751
5855.45946	0.00752
5853.53079	0.00751
5851.60211	0.00751
5849.67344	0.00753
5847.74476	0.00756
5845.81609	0.00758
5843.88741	0.00760
5841.95873	0.00761
5840.03006	0.00763
5838.10138	0.00764
5836.17271	0.00765
5834.24403	0.00768
5832.31536	0.00771
5830.38668	0.00772
5828.45800	0.00772
5826.52933	0.00773
5824.60065	0.00774
5822.67198	0.00776
5820.74330	0.00778
5818.81463	0.00782
5816.88595	0.00784
5814.95727	0.00784
5813.02860	0.00783
5811.09992	0.00785
5809.17125	0.00788
5807.24257	0.00789
5805.31390	0.00789
5803.38522	0.00789
5801.45654	0.00790
5799.52787	0.00791
5797.59919	0.00794
5795.67052	0.00798
5793.74184	0.00802
5791.81317	0.00805
5789.88449	0.00806
5787.95581	0.00808
5786.02714	0.00810
5784.09846	0.00812
5782.16979	0.00814
5780.24111	0.00814
5778.31244	0.00814
5776.38376	0.00815
5774.45508	0.00815
5772.52641	0.00817
5770.59773	0.00820
5768.66906	0.00823
5766.74038	0.00825
5764.81171	0.00825
5762.88303	0.00826
5760.95435	0.00828
5759.02568	0.00831
5757.09700	0.00835
5755.16833	0.00837
5753.23965	0.00838
5751.31098	0.00839
5749.38230	0.00839
5747.45362	0.00840
5745.52495	0.00843
5743.59627	0.00846
5741.66760	0.00848
5739.73892	0.00849
5737.81025	0.00851
5735.88157	0.00853
5733.95289	0.00855
5732.02422	0.00856
5730.09554	0.00858
5728.16687	0.00860
5726.23819	0.00862
5724.30952	0.00863
5722.38084	0.00864
5720.45216	0.00863
5718.52349	0.00863
5716.59481	0.00865
5714.66614	0.00868
5712.73746	0.00869
5710.80879	0.00871
5708.88011	0.00873
5706.95143	0.00876
5705.02276	0.00880
5703.09408	0.00882
5701.16541	0.00882
5699.23673	0.00880
5697.30806	0.00882
5695.37938	0.00885
5693.45070	0.00889
5691.52203	0.00892
5689.59335	0.00894
5687.66468	0.00894
5685.73600	0.00893
5683.80733	0.00894
5681.87865	0.00898
5679.94997	0.00902
5678.02130	0.00904
5676.09262	0.00905
5674.16395	0.00905
5672.23527	0.00907
5670.30660	0.00909
5668.37792	0.00911
5666.44924	0.00913
5664.52057	0.00913
5662.59189	0.00914
5660.66322	0.00915
5658.73454	0.00917
5656.80587	0.00920
5654.87719	0.00924
5652.94851	0.00927
5651.01984	0.00928
5649.09116	0.00928
5647.16249	0.00928
5645.23381	0.00932
5643.30514	0.00936
5641.37646	0.00937
5639.44778	0.00937
5637.51911	0.00938
5635.59043	0.00941
5633.66176	0.00943
5631.73308	0.00945
5629.80441	0.00947
5627.87573	0.00948
5625.94705	0.00948
5624.01838	0.00949
5622.08970	0.00951
5620.16103	0.00955
5618.23235	0.00958
5616.30368	0.00962
5614.37500	0.00964
5612.44632	0.00967
5610.51765	0.00968
5608.58897	0.00969
5606.66030	0.00971
5604.73162	0.00974
5602.80295	0.00975
5600.87427	0.00976
5598.94559	0.00977
5597.01692	0.00979
5595.08824	0.00980
5593.15957	0.00980
5591.23089	0.00980
5589.30222	0.00983
5587.37354	0.00987
5585.44486	0.00990
5583.51619	0.00993
5581.58751	0.00994
5579.65884	0.00997
5577.73016	0.01000
5575.80149	0.01003
5573.87281	0.01005
5571.94413	0.01004
5570.01546	0.01004
5568.08678	0.01006
5566.15811	0.01011
5564.22943	0.01015
5562.30076	0.01016
5560.37208	0.01015
5558.44340	0.01014
5556.51473	0.01016
5554.58605	0.01020
5552.65738	0.01022
5550.72870	0.01025
5548.80003	0.01028
5546.87135	0.01032
5544.94267	0.01033
5543.01400	0.01034
5541.08532	0.01035
5539.15665	0.01036
5537.22797	0.01037
5535.29930	0.01038
5533.37062	0.01041
5531.44194	0.01045
5529.51327	0.01049
5527.58459	0.01051
5525.65592	0.01051
5523.72724	0.01052
5521.79857	0.01053
5519.86989	0.01054
5517.94121	0.01056
5516.01254	0.01060
5514.08386	0.01064
5512.15519	0.01067
5510.22651	0.01068
5508.29784	0.01069
5506.36916	0.01071
5504.44048	0.01072
5502.51181	0.01073
5500.58313	0.01075
5498.65446	0.01078
5496.72578	0.01079
5494.79711	0.01080
5492.86843	0.01082
5490.93975	0.01085
5489.01108	0.01087
5487.08240	0.01090
5485.15373	0.01092
5483.22505	0.01095
5481.29638	0.01096
5479.36770	0.01097
5477.43902	0.01099
5475.51035	0.01102
5473.58167	0.01106
5471.65300	0.01109
5469.72432	0.01110
5467.79565	0.01112
5465.86697	0.01115
5463.93829	0.01119
5462.00962	0.01122
5460.08094	0.01123
5458.15227	0.01124
5456.22359	0.01125
5454.29492	0.01126
5452.36624	0.01128
5450.43756	0.01130
5448.50889	0.01133
5446.58021	0.01137
5444.65154	0.01139
5442.72286	0.01138
5440.79419	0.01137
5438.86551	0.01140
5436.93683	0.01144
5435.00816	0.01146
5433.07948	0.01147
5431.15081	0.01148
5429.22213	0.01149
5427.29346	0.01152
5425.36478	0.01157
5423.43610	0.01159
5421.50743	0.01159
5419.57875	0.01161
5417.65008	0.01165
5415.72140	0.01167
5413.79273	0.01170
5411.86405	0.01173
5409.93537	0.01177
5408.00670	0.01179
5406.07802	0.01179
5404.14935	0.01178
5402.22067	0.01180
5400.29200	0.01184
5398.36332	0.01187
5396.43464	0.01189
5394.50597	0.01192
5392.57729	0.01195
5390.64862	0.01196
5388.71994	0.01196
5386.79127	0.01197
5384.86259	0.01201
5382.93391	0.01205
5381.00524	0.01208
5379.07656	0.01210
5377.14789	0.01212
5375.21921	0.01214
5373.29054	0.01216
5371.36186	0.01218
5369.43318	0.01221
5367.50451	0.01223
5365.57583	0.01223
5363.64716	0.01224
5361.71848	0.01227
5359.78981	0.01230
5357.86113	0.01234
5355.93245	0.01237
5354.00378	0.01237
5352.07510	0.01236
5350.14643	0.01235
5348.21775	0.01238
5346.28908	0.01242
5344.36040	0.01248
5342.43172	0.01252
5340.50305	0.01252
5338.57437	0.01252
5336.64570	0.01254
5334.71702	0.01259
5332.78835	0.01263
5330.85967	0.01265
5328.93099	0.01267
5327.00232	0.01268
5325.07364	0.01271
5323.14497	0.01273
5321.21629	0.01276
5319.28762	0.01280
5317.35894	0.01282
5315.43026	0.01283
5313.50159	0.01285
5311.57291	0.01287
5309.64424	0.01289
5307.71556	0.01292
5305.78689	0.01295
5303.85821	0.01297
5301.92953	0.01299
5300.00086	0.01301
5298.07218	0.01302
5296.14351	0.01305
5294.21483	0.01307
5292.28616	0.01310
5290.35748	0.01314
5288.42880	0.01317
5286.50013	0.01321
5284.57145	0.01322
5282.64278	0.01322
5280.71410	0.01322
5278.78543	0.01323
5276.85675	0.01325
5274.92807	0.01329
5272.99940	0.01333
5271.07072	0.01335
5269.14205	0.01337
5267.21337	0.01339
5265.28470	0.01339
5263.35602	0.01340
5261.42734	0.01342
5259.49867	0.01346
5257.56999	0.01350
5255.64132	0.01353
5253.71264	0.01354
5251.78397	0.01355
5249.85529	0.01358
5247.92661	0.01360
5245.99794	0.01364
5244.06926	0.01369
5242.14059	0.01373
5240.21191	0.01374
5238.28324	0.01373
5236.35456	0.01373
5234.42588	0.01377
5232.49721	0.01381
5230.56853	0.01384
5228.63986	0.01386
5226.71118	0.01388
5224.78251	0.01390
5222.85383	0.01391
5220.92515	0.01393
5218.99648	0.01397
5217.06780	0.01401
5215.13913	0.01403
5213.21045	0.01405
5211.28178	0.01407
5209.35310	0.01409
5207.42442	0.01412
5205.49575	0.01414
5203.56707	0.01416
5201.63840	0.01418
5199.70972	0.01421
5197.78105	0.01422
5195.85237	0.01424
5193.92369	0.01426
5191.99502	0.01430
5190.06634	0.01433
5188.13767	0.01437
5186.20899	0.01438
5184.28032	0.01439
5182.35164	0.01441
5180.42296	0.01446
5178.49429	0.01450
5176.56561	0.01453
5174.63694	0.01455
5172.70826	0.01457
5170.77959	0.01459
5168.85091	0.01461
5166.92223	0.01463
5164.99356	0.01465
5163.06488	0.01470
5161.13621	0.01475
5159.20753	0.01478
5157.27886	0.01481
5155.35018	0.01483
5153.42150	0.01485
5151.49283	0.01486
5149.56415	0.01486
5147.63548	0.01487
5145.70680	0.01490
5143.77813	0.01493
5141.84945	0.01498
5139.92077	0.01503
5137.99210	0.01506
5136.06342	0.01506
5134.13475	0.01505
5132.20607	0.01506
5130.27740	0.01509
5128.34872	0.01515
5126.42004	0.01518
5124.49137	0.01520
5122.56269	0.01521
5120.63402	0.01522
5118.70534	0.01524
5116.77667	0.01526
5114.84799	0.01529
5112.91931	0.01534
5110.99064	0.01538
5109.06196	0.01541
5107.13329	0.01542
5105.20461	0.01542
5103.27594	0.01544
5101.34726	0.01548
5099.41858	0.01550
5097.48991	0.01550
5095.56123	0.01552
5093.63256	0.01556
5091.70388	0.01561
5089.77521	0.01565
5087.84653	0.01568
5085.91785	0.01570
5083.98918	0.01572
5082.06050	0.01574
5080.13183	0.01578
5078.20315	0.01581
5076.27448	0.01584
5074.34580	0.01585
5072.41712	0.01586
5070.48845	0.01588
5068.55977	0.01591
5066.63110	0.01595
5064.70242	0.01599
5062.77375	0.01602
5060.84507	0.01602
5058.91639	0.01601
5056.98772	0.01603
5055.05904	0.01606
5053.13037	0.01608
5051.20169	0.01613
5049.27302	0.01617
5047.34434	0.01618
5045.41566	0.01617
5043.48699	0.01620
5041.55831	0.01626
5039.62964	0.01631
5037.70096	0.01635
5035.77229	0.01637
5033.84361	0.01639
5031.91493	0.01642
5029.98626	0.01644
5028.05758	0.01648
5026.12891	0.01653
5024.20023	0.01658
5022.27156	0.01659
5020.34288	0.01660
5018.41420	0.01661
5016.48553	0.01663
5014.55685	0.01667
5012.62818	0.01670
5010.69950	0.01673
5008.77083	0.01676
5006.84215	0.01680
5004.91347	0.01685
5002.98480	0.01688
5001.05612	0.01689
4999.12745	0.01691
4997.19877	0.01694
4995.27010	0.01697
4993.34142	0.01698
4991.41274	0.01700
4989.48407	0.01702
4987.55539	0.01705
4985.62672	0.01707
4983.69804	0.01710
4981.76937	0.01712
4979.84069	0.01713
4977.91201	0.01715
4975.98334	0.01720
4974.05466	0.01725
4972.12599	0.01729
4970.19731	0.01729
4968.26864	0.01730
4966.33996	0.01732
4964.41128	0.01736
4962.48261	0.01739
4960.55393	0.01742
4958.62526	0.01745
4956.69658	0.01747
4954.76791	0.01748
4952.83923	0.01751
4950.91055	0.01755
4948.98188	0.01758
4947.05320	0.01761
4945.12453	0.01764
4943.19585	0.01766
4941.26718	0.01767
4939.33850	0.01770
4937.40982	0.01774
4935.48115	0.01777
4933.55247	0.01778
4931.62380	0.01780
4929.69512	0.01785
4927.76645	0.01791
4925.83777	0.01793
4923.90909	0.01796
4921.98042	0.01799
4920.05174	0.01801
4918.12307	0.01802
4916.19439	0.01803
4914.26572	0.01805
4912.33704	0.01809
4910.40836	0.01814
4908.47969	0.01818
4906.55101	0.01820
4904.62234	0.01822
4902.69366	0.01825
4900.76499	0.01827
4898.83631	0.01829
4896.90763	0.01832
4894.97896	0.01836
4893.05028	0.01839
4891.12161	0.01841
4889.19293	0.01843
4887.26426	0.01848
4885.33558	0.01853
4883.40690	0.01858
4881.47823	0.01863
4879.54955	0.01866
4877.62088	0.01866
4875.69220	0.01867
4873.76353	0.01870
4871.83485	0.01874
4869.90617	0.01875
4867.97750	0.01876
4866.04882	0.01878
4864.12015	0.01883
4862.19147	0.01888
4860.26280	0.01892
4858.33412	0.01895
4856.40544	0.01899
4854.47677	0.01903
4852.54809	0.01905
4850.61942	0.01907
4848.69074	0.01909
4846.76207	0.01912
4844.83339	0.01916
4842.90471	0.01919
4840.97604	0.01920
4839.04736	0.01922
4837.11869	0.01927
4835.19001	0.01931
4833.26134	0.01933
4831.33266	0.01935
4829.40398	0.01938
4827.47531	0.01943
4825.54663	0.01948
4823.61796	0.01952
4821.68928	0.01954
4819.76061	0.01955
4817.83193	0.01957
4815.90325	0.01962
4813.97458	0.01966
4812.04590	0.01970
4810.11723	0.01973
4808.18855	0.01976
4806.25988	0.01978
4804.33120	0.01980
4802.40252	0.01982
4800.47385	0.01984
4798.54517	0.01987
4796.61650	0.01991
4794.68782	0.01995
4792.75915	0.01998
4790.83047	0.02001
4788.90179	0.02004
4786.97312	0.02008
4785.04444	0.02013
4783.11577	0.02017
4781.18709	0.02021
4779.25842	0.02021
4777.32974	0.02021
4775.40106	0.02023
4773.47239	0.02027
4771.54371	0.02032
4769.61504	0.02036
4767.68636	0.02041
4765.75769	0.02045
4763.82901	0.02046
4761.90033	0.02047
4759.97166	0.02050
4758.04298	0.02053
4756.11431	0.02057
4754.18563	0.02063
4752.25696	0.02068
4750.32828	0.02070
4748.39960	0.02072
4746.47093	0.02076
4744.54225	0.02080
4742.61358	0.02083
4740.68490	0.02084
4738.75623	0.02086
4736.82755	0.02089
4734.89887	0.02093
4732.97020	0.02098
4731.04152	0.02104
4729.11285	0.02108
4727.18417	0.02113
4725.25550	0.02115
4723.32682	0.02116
4721.39814	0.02119
4719.46947	0.02122
4717.54079	0.02126
4715.61212	0.02127
4713.68344	0.02128
4711.75477	0.02131
4709.82609	0.02135
4707.89741	0.02140
4705.96874	0.02144
4704.04006	0.02148
4702.11139	0.02150
4700.18271	0.02153
4698.25404	0.02158
4696.32536	0.02164
4694.39668	0.02168
4692.46801	0.02171
4690.53933	0.02171
4688.61066	0.02172
4686.68198	0.02174
4684.75331	0.02178
4682.82463	0.02185
4680.89595	0.02191
4678.96728	0.02196
4677.03860	0.02198
4675.10993	0.02199
4673.18125	0.02201
4671.25258	0.02205
4669.32390	0.02210
4667.39522	0.02216
4665.46655	0.02221
4663.53787	0.02225
4661.60920	0.02225
4659.68052	0.02227
4657.75185	0.02232
4655.82317	0.02238
4653.89449	0.02243
4651.96582	0.02245
4650.03714	0.02248
4648.10847	0.02252
4646.17979	0.02256
4644.25112	0.02260
4642.32244	0.02263
4640.39376	0.02265
4638.46509	0.02267
4636.53641	0.02269
4634.60774	0.02273
4632.67906	0.02278
4630.75039	0.02283
4628.82171	0.02287
4626.89303	0.02291
4624.96436	0.02294
4623.03568	0.02298
4621.10701	0.02301
4619.17833	0.02306
4617.24966	0.02313
4615.32098	0.02319
4613.39230	0.02320
4611.46363	0.02319
4609.53495	0.02321
4607.60628	0.02325
4605.67760	0.02331
4603.74893	0.02335
4601.82025	0.02338
4599.89157	0.02341
4597.96290	0.02345
4596.03422	0.02352
4594.10555	0.02358
4592.17687	0.02361
4590.24820	0.02363
4588.31952	0.02366
4586.39084	0.02369
4584.46217	0.02373
4582.53349	0.02378
4580.60482	0.02383
4578.67614	0.02385
4576.74747	0.02387
4574.81879	0.02392
4572.89011	0.02397
4570.96144	0.02403
4569.03276	0.02409
4567.10409	0.02415
4565.17541	0.02418
4563.24674	0.02420
4561.31806	0.02423
4559.38938	0.02425
4557.46071	0.02427
4555.53203	0.02431
4553.60336	0.02438
4551.67468	0.02444
4549.74601	0.02449
4547.81733	0.02453
4545.88865	0.02455
4543.95998	0.02455
4542.03130	0.02457
4540.10263	0.02462
4538.17395	0.02468
4536.24528	0.02474
4534.31660	0.02477
4532.38792	0.02481
4530.45925	0.02486
4528.53057	0.02491
4526.60190	0.02495
4524.67322	0.02497
4522.74455	0.02500
4520.81587	0.02505
4518.88719	0.02513
4516.95852	0.02520
4515.02984	0.02525
4513.10117	0.02529
4511.17249	0.02532
4509.24382	0.02535
4507.31514	0.02538
4505.38646	0.02542
4503.45779	0.02547
4501.52911	0.02551
4499.60044	0.02553
4497.67176	0.02558
4495.74309	0.02565
4493.81441	0.02569
4491.88573	0.02573
4489.95706	0.02577
4488.02838	0.02582
4486.09971	0.02586
4484.17103	0.02587
4482.24236	0.02589
4480.31368	0.02594
4478.38500	0.02602
4476.45633	0.02610
4474.52765	0.02614
4472.59898	0.02617
4470.67030	0.02619
4468.74163	0.02622
4466.81295	0.02627
4464.88427	0.02632
4462.95560	0.02637
4461.02692	0.02642
4459.09825	0.02647
4457.16957	0.02651
4455.24090	0.02655
4453.31222	0.02660
4451.38354	0.02667
4449.45487	0.02673
4447.52619	0.02677
4445.59752	0.02678
4443.66884	0.02680
4441.74017	0.02684
4439.81149	0.02692
4437.88281	0.02699
4435.95414	0.02702
4434.02546	0.02704
4432.09679	0.02707
4430.16811	0.02712
4428.23944	0.02718
4426.31076	0.02725
4424.38208	0.02730
4422.45341	0.02734
4420.52473	0.02738
4418.59606	0.02744
4416.66738	0.02751
4414.73871	0.02757
4412.81003	0.02761
4410.88135	0.02765
4408.95268	0.02771
4407.02400	0.02775
4405.09533	0.02778
4403.16665	0.02782
4401.23798	0.02787
4399.30930	0.02793
4397.38062	0.02798
4395.45195	0.02803
4393.52327	0.02807
4391.59460	0.02811
4389.66592	0.02817
4387.73725	0.02824
4385.80857	0.02831
4383.87989	0.02837
4381.95122	0.02842
4380.02254	0.02846
4378.09387	0.02848
4376.16519	0.02851
4374.23652	0.02856
4372.30784	0.02861
4370.37916	0.02865
4368.45049	0.02869
4366.52181	0.02875
4364.59314	0.02882
4362.66446	0.02890
4360.73579	0.02895
4358.80711	0.02900
4356.87843	0.02905
4354.94976	0.02909
4353.02108	0.02913
4351.09241	0.02918
4349.16373	0.02924
4347.23506	0.02930
4345.30638	0.02936
4343.37770	0.02940
4341.44903	0.02944
4339.52035	0.02949
4337.59168	0.02956
4335.66300	0.02962
4333.73433	0.02966
4331.80565	0.02969
4329.87697	0.02975
4327.94830	0.02982
4326.01962	0.02989
4324.09095	0.02994
4322.16227	0.02999
4320.23360	0.03006
4318.30492	0.03012
4316.37624	0.03016
4314.44757	0.03020
4312.51889	0.03025
4310.59022	0.03032
4308.66154	0.03040
4306.73287	0.03045
4304.80419	0.03047
4302.87551	0.03051
4300.94684	0.03058
4299.01816	0.03066
4297.08949	0.03073
4295.16081	0.03078
4293.23214	0.03082
4291.30346	0.03086
4289.37478	0.03092
4287.44611	0.03099
4285.51743	0.03106
4283.58876	0.03112
4281.66008	0.03118
4279.73141	0.03124
4277.80273	0.03128
4275.87405	0.03132
4273.94538	0.03139
4272.01670	0.03147
4270.08803	0.03155
4268.15935	0.03162
4266.23068	0.03165
4264.30200	0.03166
4262.37332	0.03169
4260.44465	0.03176
4258.51597	0.03184
4256.58730	0.03190
4254.65862	0.03197
4252.72995	0.03204
4250.80127	0.03211
4248.87259	0.03216
4246.94392	0.03223
4245.01524	0.03230
4243.08657	0.03233
4241.15789	0.03235
4239.22922	0.03239
4237.30054	0.03246
4235.37186	0.03253
4233.44319	0.03259
4231.51451	0.03265
4229.58584	0.03271
4227.65716	0.03277
4225.72849	0.03282
4223.79981	0.03289
4221.87113	0.03295
4219.94246	0.03303
4218.01378	0.03311
4216.08511	0.03317
4214.15643	0.03322
4212.22776	0.03326
4210.29908	0.03331
4208.37040	0.03338
4206.44173	0.03347
4204.51305	0.03355
4202.58438	0.03359
4200.65570	0.03364
4198.72703	0.03371
4196.79835	0.03378
4194.86968	0.03384
4192.94100	0.03393
4191.01232	0.03401
4189.08365	0.03407
4187.15497	0.03410
4185.22630	0.03416
4183.29762	0.03424
4181.36895	0.03433
4179.44027	0.03439
4177.51159	0.03444
4175.58292	0.03449
4173.65424	0.03455
4171.72557	0.03460
4169.79689	0.03465
4167.86822	0.03471
4165.93954	0.03477
4164.01086	0.03483
4162.08219	0.03490
4160.15351	0.03499
4158.22484	0.03508
4156.29616	0.03515
4154.36749	0.03520
4152.43881	0.03526
4150.51013	0.03533
4148.58146	0.03539
4146.65278	0.03545
4144.72411	0.03552
4142.79543	0.03560
4140.86676	0.03567
4138.93808	0.03573
4137.00940	0.03578
4135.08073	0.03584
4133.15205	0.03592
4131.22338	0.03602
4129.29470	0.03613
4127.36603	0.03621
4125.43735	0.03626
4123.50867	0.03631
4121.58000	0.03638
4119.65132	0.03645
4117.72265	0.03650
4115.79397	0.03655
4113.86530	0.03661
4111.93662	0.03669
4110.00794	0.03677
4108.07927	0.03683
4106.15059	0.03689
4104.22192	0.03696
4102.29324	0.03705
4100.36457	0.03713
4098.43589	0.03718
4096.50721	0.03722
4094.57854	0.03730
4092.64986	0.03740
4090.72119	0.03749
4088.79251	0.03754
4086.86384	0.03758
4084.93516	0.03764
4083.00648	0.03771
4081.07781	0.03781
4079.14913	0.03790
4077.22046	0.03797
4075.29178	0.03801
4073.36311	0.03806
4071.43443	0.03815
4069.50575	0.03825
4067.57708	0.03833
4065.64840	0.03841
4063.71973	0.03849
4061.79105	0.03855
4059.86238	0.03860
4057.93370	0.03865
4056.00502	0.03873
4054.07635	0.03884
4052.14767	0.03894
4050.21900	0.03900
4048.29032	0.03904
4046.36165	0.03910
4044.43297	0.03919
4042.50429	0.03931
4040.57562	0.03941
4038.64694	0.03948
4036.71827	0.03952
4034.78959	0.03958
4032.86092	0.03968
4030.93224	0.03979
4029.00356	0.03987
4027.07489	0.03991
4025.14621	0.03995
4023.21754	0.04001
4021.28886	0.04010
4019.36019	0.04017
4017.43151	0.04024
4015.50283	0.04031
4013.57416	0.04038
4011.64548	0.04044
4009.71681	0.04051
4007.78813	0.04060
4005.85946	0.04070
4003.93078	0.04080
4002.00210	0.04092
4000.07343	0.04103
3998.14475	0.04109
3996.21608	0.04113
3994.28740	0.04120
3992.35873	0.04128
3990.43005	0.04135
3988.50137	0.04143
3986.57270	0.04151
3984.64402	0.04157
3982.71535	0.04165
3980.78667	0.04173
3978.85800	0.04181
3976.92932	0.04191
3975.00064	0.04197
3973.07197	0.04203
3971.14329	0.04209
3969.21462	0.04216
3967.28594	0.04225
3965.35727	0.04236
3963.42859	0.04247
3961.49991	0.04255
3959.57124	0.04260
3957.64256	0.04267
3955.71389	0.04275
3953.78521	0.04285
3951.85654	0.04295
3949.92786	0.04302
3947.99918	0.04310
3946.07051	0.04318
3944.14183	0.04326
3942.21316	0.04332
3940.28448	0.04341
3938.35581	0.04350
3936.42713	0.04358
3934.49845	0.04365
3932.56978	0.04369
3930.64110	0.04376
3928.71243	0.04386
3926.78375	0.04397
3924.85508	0.04406
3922.92640	0.04414
3920.99772	0.04418
3919.06905	0.04423
3917.14037	0.04432
3915.21170	0.04444
3913.28302	0.04458
3911.35435	0.04469
3909.42567	0.04474
3907.49699	0.04475
3905.56832	0.04472
3903.63964	0.04474
3901.71097	0.04483
3899.78229	0.04497
3897.85362	0.04514
3895.92494	0.04529
3893.99626	0.04536
3892.06759	0.04540
3890.13891	0.04549
3888.21024	0.04558
3886.28156	0.04562
3884.35289	0.04568
3882.42421	0.04577
3880.49553	0.04588
3878.56686	0.04603
3876.63818	0.04614
3874.70951	0.04618
3872.78083	0.04619
3870.85216	0.04622
3868.92348	0.04631
3866.99480	0.04645
3865.06613	0.04657
3863.13745	0.04671
3861.20878	0.04685
3859.28010	0.04695
3857.35143	0.04688
3855.42275	0.04668
3853.49407	0.04665
3851.56540	0.04694
3849.63672	0.04730
3847.70805	0.04748
3845.77937	0.04752
3843.85070	0.04754
3841.92202	0.04761
3839.99334	0.04769
3838.06467	0.04779
3836.13599	0.04793
3834.20732	0.04806
3832.27864	0.04815
3830.34997	0.04823
3828.42129	0.04834
3826.49261	0.04844
3824.56394	0.04848
3822.63526	0.04843
3820.70659	0.04847
3818.77791	0.04864
3816.84924	0.04880
3814.92056	0.04893
3812.99188	0.04908
3811.06321	0.04920
3809.13453	0.04925
3807.20586	0.04929
3805.27718	0.04936
3803.34851	0.04939
3801.41983	0.04944
3799.49115	0.04960
3797.56248	0.04977
3795.63380	0.04989
3793.70513	0.04999
3791.77645	0.05009
3789.84778	0.05020
3787.91910	0.05031
3785.99042	0.05039
3784.06175	0.05048
3782.13307	0.05057
3780.20440	0.05063
3778.27572	0.05073
3776.34705	0.05088
3774.41837	0.05099
3772.48969	0.05105
3770.56102	0.05108
3768.63234	0.05115
3766.70367	0.05126
3764.77499	0.05139
3762.84632	0.05151
3760.91764	0.05161
3758.98896	0.05170
3757.06029	0.05179
3755.13161	0.05180
3753.20294	0.05172
3751.27426	0.05164
3749.34559	0.05173
3747.41691	0.05189
3745.48823	0.05199
3743.55956	0.05215
3741.63088	0.05239
3739.70221	0.05253
3737.77353	0.05253
3735.84486	0.05253
3733.91618	0.05264
3731.98750	0.05284
3730.05883	0.05300
3728.13015	0.05305
3726.20148	0.05308
3724.27280	0.05322
3722.34413	0.05340
3720.41545	0.05355
3718.48677	0.05367
3716.55810	0.05374
3714.62942	0.05372
3712.70075	0.05369
3710.77207	0.05380
3708.84340	0.05404
3706.91472	0.05425
3704.98604	0.05435
3703.05737	0.05438
3701.12869	0.05446
3699.20002	0.05459
3697.27134	0.05475
3695.34267	0.05487
3693.41399	0.05489
3691.48531	0.05484
3689.55664	0.05484
3687.62796	0.05500
3685.69929	0.05524
3683.77061	0.05543
3681.84194	0.05553
3679.91326	0.05555
3677.98458	0.05550
3676.05591	0.05545
3674.12723	0.05549
3672.19856	0.05560
3670.26988	0.05574
3668.34121	0.05598
3666.41253	0.05620
3664.48385	0.05632
3662.55518	0.05639
3660.62650	0.05647
3658.69783	0.05652
3656.76915	0.05654
3654.84048	0.05659
3652.91180	0.05658
3650.98312	0.05645
3649.05445	0.05639
3647.12577	0.05654
3645.19710	0.05683
3643.26842	0.05709
3641.33975	0.05727
3639.41107	0.05740
3637.48239	0.05749
3635.55372	0.05756
3633.62504	0.05761
3631.69637	0.05754
3629.76769	0.05745
3627.83902	0.05756
3625.91034	0.05782
3623.98166	0.05799
3622.05299	0.05805
3620.12431	0.05806
3618.19564	0.05810
3616.26696	0.05819
3614.33829	0.05828
3612.40961	0.05833
3610.48093	0.05835
3608.55226	0.05840
3606.62358	0.05854
3604.69491	0.05871
3602.76623	0.05881
3600.83756	0.05885
3598.90888	0.05889
3596.98020	0.05894
3595.05153	0.05903
3593.12285	0.05916
3591.19418	0.05923
3589.26550	0.05920
3587.33683	0.05921
3585.40815	0.05935
3583.47947	0.05953
3581.55080	0.05967
3579.62212	0.05978
3577.69345	0.05987
3575.76477	0.05993
3573.83610	0.05997
3571.90742	0.06003
3569.97874	0.06006
3568.05007	0.06009
3566.12139	0.06019
3564.19272	0.06034
3562.26404	0.06044
3560.33537	0.06050
3558.40669	0.06057
3556.47801	0.06065
3554.54934	0.06074
3552.62066	0.06083
3550.69199	0.06092
3548.76331	0.06100
3546.83464	0.06105
3544.90596	0.06111
3542.97728	0.06119
3541.04861	0.06127
3539.11993	0.06133
3537.19126	0.06138
3535.26258	0.06143
3533.33391	0.06149
3531.40523	0.06156
3529.47655	0.06162
3527.54788	0.06166
3525.61920	0.06169
3523.69053	0.06173
3521.76185	0.06177
3519.83318	0.06180
3517.90450	0.06183
3515.97582	0.06187
3514.04715	0.06191
3512.11847	0.06194
3510.18980	0.06196
3508.26112	0.06198
3506.33245	0.06204
3504.40377	0.06210
3502.47509	0.06215
3500.54642	0.06217
3498.61774	0.06217
3496.68907	0.06220
3494.76039	0.06226
3492.83172	0.06231
3490.90304	0.06235
3488.97436	0.06238
3487.04569	0.06240
3485.11701	0.06240
3483.18834	0.06242
3481.25966	0.06249
3479.33099	0.06257
3477.40231	0.06262
3475.47363	0.06267
3473.54496	0.06276
3471.61628	0.06287
3469.68761	0.06297
3467.75893	0.06307
3465.83026	0.06320
3463.90158	0.06332
3461.97290	0.06343
3460.04423	0.06351
3458.11555	0.06360
3456.18688	0.06374
3454.25820	0.06387
3452.32953	0.06397
3450.40085	0.06404
3448.47217	0.06409
3446.54350	0.06416
3444.61482	0.06427
3442.68615	0.06439
3440.75747	0.06454
3438.82880	0.06469
3436.90012	0.06483
3434.97144	0.06499
3433.04277	0.06518
3431.11409	0.06539
3429.18542	0.06562
3427.25674	0.06585
3425.32807	0.06606
3423.39939	0.06625
3421.47071	0.06641
3419.54204	0.06657
3417.61336	0.06676
3415.68469	0.06695
3413.75601	0.06712
3411.82734	0.06728
3409.89866	0.06743
3407.96998	0.06756
3406.04131	0.06766
3404.11263	0.06777
3402.18396	0.06791
3400.25528	0.06808
3398.32661	0.06823
3396.39793	0.06835
3394.46925	0.06846
3392.54058	0.06860
3390.61190	0.06876
3388.68323	0.06893
3386.75455	0.06907
3384.82588	0.06920
3382.89720	0.06932
3380.96852	0.06943
3379.03985	0.06953
3377.11117	0.06966
3375.18250	0.06982
3373.25382	0.06995
3371.32515	0.07006
3369.39647	0.07017
3367.46779	0.07030
3365.53912	0.07042
3363.61044	0.07056
3361.68177	0.07071
3359.75309	0.07087
3357.82442	0.07100
3355.89574	0.07112
3353.96706	0.07124
3352.03839	0.07139
3350.10971	0.07156
3348.18104	0.07168
3346.25236	0.07174
3344.32369	0.07182
3342.39501	0.07194
3340.46633	0.07209
3338.53766	0.07222
3336.60898	0.07234
3334.68031	0.07249
3332.75163	0.07264
3330.82296	0.07274
3328.89428	0.07284
3326.96560	0.07298
3325.03693	0.07313
3323.10825	0.07329
3321.17958	0.07344
3319.25090	0.07356
3317.32223	0.07366
3315.39355	0.07378
3313.46487	0.07390
3311.53620	0.07404
3309.60752	0.07420
3307.67885	0.07434
3305.75017	0.07444
3303.82150	0.07453
3301.89282	0.07467
3299.96414	0.07484
3298.03547	0.07502
3296.10679	0.07515
3294.17812	0.07525
3292.24944	0.07536
3290.32077	0.07550
3288.39209	0.07567
3286.46341	0.07585
3284.53474	0.07599
3282.60606	0.07609
3280.67739	0.07618
3278.74871	0.07631
3276.82004	0.07646
3274.89136	0.07662
3272.96268	0.07676
3271.03401	0.07688
3269.10533	0.07700
3267.17666	0.07713
3265.24798	0.07726
3263.31931	0.07743
3261.39063	0.07760
3259.46195	0.07777
3257.53328	0.07792
3255.60460	0.07802
3253.67593	0.07811
3251.74725	0.07824
3249.81858	0.07841
3247.88990	0.07859
3245.96122	0.07874
3244.03255	0.07888
3242.10387	0.07903
3240.17520	0.07917
3238.24652	0.07928
3236.31785	0.07939
3234.38917	0.07953
3232.46049	0.07970
3230.53182	0.07983
3228.60314	0.07994
3226.67447	0.08005
3224.74579	0.08019
3222.81712	0.08034
3220.88844	0.08049
3218.95976	0.08063
3217.03109	0.08073
3215.10241	0.08082
3213.17374	0.08094
3211.24506	0.08108
3209.31639	0.08125
3207.38771	0.08144
3205.45903	0.08162
3203.53036	0.08177
3201.60168	0.08190
3199.67301	0.08204
3197.74433	0.08222
3195.81566	0.08241
3193.88698	0.08257
3191.95830	0.08268
3190.02963	0.08278
3188.10095	0.08293
3186.17228	0.08311
3184.24360	0.08328
3182.31493	0.08346
3180.38625	0.08362
3178.45757	0.08374
3176.52890	0.08386
3174.60022	0.08400
3172.67155	0.08414
3170.74287	0.08431
3168.81420	0.08448
3166.88552	0.08461
3164.95684	0.08472
3163.02817	0.08483
3161.09949	0.08495
3159.17082	0.08510
3157.24214	0.08528
3155.31347	0.08544
3153.38479	0.08558
3151.45611	0.08570
3149.52744	0.08583
3147.59876	0.08599
3145.67009	0.08616
3143.74141	0.08633
3141.81274	0.08648
3139.88406	0.08663
3137.95538	0.08677
3136.02671	0.08692
3134.09803	0.08708
3132.16936	0.08726
3130.24068	0.08742
3128.31201	0.08752
3126.38333	0.08761
3124.45465	0.08771
3122.52598	0.08784
3120.59730	0.08799
3118.66863	0.08815
3116.73995	0.08829
3114.81128	0.08842
3112.88260	0.08856
3110.95392	0.08871
3109.02525	0.08888
3107.09657	0.08906
3105.16790	0.08923
3103.23922	0.08935
3101.31055	0.08944
3099.38187	0.08957
3097.45319	0.08976
3095.52452	0.08996
3093.59584	0.09011
3091.66717	0.09024
3089.73849	0.09034
3087.80982	0.09045
3085.88114	0.09057
3083.95246	0.09072
3082.02379	0.09091
3080.09511	0.09110
3078.16644	0.09124
3076.23776	0.09134
3074.30909	0.09146
3072.38041	0.09162
3070.45173	0.09179
3068.52306	0.09194
3066.59438	0.09210
3064.66571	0.09226
3062.73703	0.09239
3060.80836	0.09251
3058.87968	0.09265
3056.95100	0.09280
3055.02233	0.09295
3053.09365	0.09310
3051.16498	0.09323
3049.23630	0.09334
3047.30763	0.09348
3045.37895	0.09364
3043.45027	0.09379
3041.52160	0.09394
3039.59292	0.09409
3037.66425	0.09422
3035.73557	0.09435
3033.80690	0.09448
3031.87822	0.09459
3029.94954	0.09474
3028.02087	0.09494
3026.09219	0.09513
3024.16352	0.09525
3022.23484	0.09534
3020.30617	0.09543
3018.37749	0.09558
3016.44881	0.09577
3014.52014	0.09597
3012.59146	0.09611
3010.66279	0.09623
3008.73411	0.09634
3006.80544	0.09647
3004.87676	0.09664
3002.94808	0.09680
3001.01941	0.09694
2999.09073	0.09705
2997.16206	0.09718
2995.23338	0.09733
2993.30471	0.09749
2991.37603	0.09765
2989.44735	0.09781
2987.51868	0.09793
2985.59000	0.09799
2983.66133	0.09803
2981.73265	0.09810
2979.80398	0.09819
2977.87530	0.09825
2975.94662	0.09829
2974.01795	0.09833
2972.08927	0.09834
2970.16060	0.09829
2968.23192	0.09827
2966.30325	0.09829
2964.37457	0.09834
2962.44589	0.09840
2960.51722	0.09851
2958.58854	0.09867
2956.65987	0.09885
2954.73119	0.09905
2952.80252	0.09927
2950.87384	0.09948
2948.94516	0.09964
2947.01649	0.09976
2945.08781	0.09984
2943.15914	0.09989
2941.23046	0.09995
2939.30179	0.10000
2937.37311	0.10000
2935.44443	0.09998
2933.51576	0.09995
2931.58708	0.09993
2929.65841	0.09994
2927.72973	0.09994
2925.80106	0.09992
2923.87238	0.09989
2921.94370	0.09989
2920.01503	0.09995
2918.08635	0.10014
2916.15768	0.10047
2914.22900	0.10092
2912.30033	0.10138
2910.37165	0.10179
2908.44297	0.10213
2906.51430	0.10243
2904.58562	0.10269
2902.65695	0.10295
2900.72827	0.10321
2898.79960	0.10344
2896.87092	0.10364
2894.94224	0.10382
2893.01357	0.10400
2891.08489	0.10419
2889.15622	0.10440
2887.22754	0.10460
2885.29887	0.10476
2883.37019	0.10490
2881.44151	0.10504
2879.51284	0.10519
2877.58416	0.10535
2875.65549	0.10551
2873.72681	0.10566
2871.79814	0.10582
2869.86946	0.10596
2867.94078	0.10607
2866.01211	0.10616
2864.08343	0.10624
2862.15476	0.10631
2860.22608	0.10636
2858.29741	0.10637
2856.36873	0.10634
2854.44005	0.10630
2852.51138	0.10630
2850.58270	0.10639
2848.65403	0.10667
2846.72535	0.10714
2844.79668	0.10767
2842.86800	0.10810
2840.93932	0.10841
2839.01065	0.10868
2837.08197	0.10894
2835.15330	0.10916
2833.22462	0.10934
2831.29595	0.10950
2829.36727	0.10969
2827.43859	0.10987
2825.50992	0.11007
2823.58124	0.11026
2821.65257	0.11044
2819.72389	0.11058
2817.79522	0.11074
2815.86654	0.11090
2813.93786	0.11107
2812.00919	0.11125
2810.08051	0.11143
2808.15184	0.11158
2806.22316	0.11171
2804.29449	0.11185
2802.36581	0.11202
2800.43713	0.11222
2798.50846	0.11241
2796.57978	0.11255
2794.65111	0.11265
2792.72243	0.11274
2790.79376	0.11288
2788.86508	0.11309
2786.93640	0.11333
2785.00773	0.11354
2783.07905	0.11370
2781.15038	0.11383
2779.22170	0.11397
2777.29303	0.11410
2775.36435	0.11425
2773.43567	0.11441
2771.50700	0.11459
2769.57832	0.11476
2767.64965	0.11491
2765.72097	0.11503
2763.79230	0.11516
2761.86362	0.11531
2759.93494	0.11548
2758.00627	0.11564
2756.07759	0.11576
2754.14892	0.11585
2752.22024	0.11597
2750.29157	0.11619
2748.36289	0.11642
2746.43421	0.11661
2744.50554	0.11674
2742.57686	0.11685
2740.64819	0.11698
2738.71951	0.11712
2736.79084	0.11726
2734.86216	0.11744
2732.93348	0.11764
2731.00481	0.11782
2729.07613	0.11793
2727.14746	0.11804
2725.21878	0.11819
2723.29011	0.11835
2721.36143	0.11852
2719.43275	0.11869
2717.50408	0.11884
2715.57540	0.11894
2713.64673	0.11902
2711.71805	0.11918
2709.78938	0.11940
2707.86070	0.11961
2705.93202	0.11976
2704.00335	0.11989
2702.07467	0.12001
2700.14600	0.12013
2698.21732	0.12026
2696.28865	0.12042
2694.35997	0.12058
2692.43129	0.12072
2690.50262	0.12086
2688.57394	0.12100
2686.64527	0.12117
2684.71659	0.12135
2682.78792	0.12153
2680.85924	0.12168
2678.93056	0.12180
2677.00189	0.12194
2675.07321	0.12211
2673.14454	0.12227
2671.21586	0.12241
2669.28719	0.12256
2667.35851	0.12270
2665.42983	0.12282
2663.50116	0.12296
2661.57248	0.12312
2659.64381	0.12328
2657.71513	0.12341
2655.78646	0.12356
2653.85778	0.12372
2651.92910	0.12385
2650.00043	0.12397
2648.07175	0.12412
2646.14308	0.12432
2644.21440	0.12454
2642.28573	0.12473
2640.35705	0.12489
2638.42837	0.12503
2636.49970	0.12515
2634.57102	0.12530
2632.64235	0.12548
2630.71367	0.12566
2628.78500	0.12579
2626.85632	0.12594
2624.92764	0.12612
2622.99897	0.12630
2621.07029	0.12647
2619.14162	0.12665
2617.21294	0.12680
2615.28427	0.12690
2613.35559	0.12699
2611.42691	0.12713
2609.49824	0.12730
2607.56956	0.12749
2605.64089	0.12767
2603.71221	0.12784
2601.78354	0.12802
2599.85486	0.12820
2597.92618	0.12837
2595.99751	0.12854
2594.06883	0.12870
2592.14016	0.12887
2590.21148	0.12904
2588.28281	0.12920
2586.35413	0.12935
2584.42545	0.12951
2582.49678	0.12965
2580.56810	0.12981
2578.63943	0.13000
2576.71075	0.13016
2574.78208	0.13029
2572.85340	0.13042
2570.92472	0.13058
2568.99605	0.13076
2567.06737	0.13092
2565.13870	0.13106
2563.21002	0.13120
2561.28135	0.13134
2559.35267	0.13147
2557.42399	0.13160
2555.49532	0.13174
2553.56664	0.13192
2551.63797	0.13210
2549.70929	0.13227
2547.78062	0.13241
2545.85194	0.13257
2543.92326	0.13276
2541.99459	0.13294
2540.06591	0.13311
2538.13724	0.13325
2536.20856	0.13335
2534.27989	0.13347
2532.35121	0.13363
2530.42253	0.13383
2528.49386	0.13405
2526.56518	0.13422
2524.63651	0.13433
2522.70783	0.13443
2520.77916	0.13454
2518.85048	0.13468
2516.92181	0.13488
2514.99313	0.13510
2513.06445	0.13530
2511.13578	0.13545
2509.20710	0.13558
2507.27843	0.13572
2505.34975	0.13590
2503.42108	0.13610
2501.49240	0.13630
2499.56372	0.13646
2497.63505	0.13662
2495.70637	0.13678
2493.77770	0.13697
2491.84902	0.13717
2489.92035	0.13736
2487.99167	0.13755
2486.06299	0.13770
2484.13432	0.13783
2482.20564	0.13798
2480.27697	0.13818
2478.34829	0.13839
2476.41962	0.13855
2474.49094	0.13870
2472.56226	0.13885
2470.63359	0.13903
2468.70491	0.13921
2466.77624	0.13939
2464.84756	0.13958
2462.91889	0.13974
2460.99021	0.13988
2459.06153	0.14003
2457.13286	0.14020
2455.20418	0.14036
2453.27551	0.14053
2451.34683	0.14070
2449.41816	0.14084
2447.48948	0.14098
2445.56080	0.14116
2443.63213	0.14135
2441.70345	0.14155
2439.77478	0.14174
2437.84610	0.14191
2435.91743	0.14205
2433.98875	0.14216
2432.06007	0.14228
2430.13140	0.14244
2428.20272	0.14264
2426.27405	0.14287
2424.34537	0.14305
2422.41670	0.14317
2420.48802	0.14326
2418.55934	0.14338
2416.63067	0.14357
2414.70199	0.14382
2412.77332	0.14405
2410.84464	0.14420
2408.91597	0.14430
2406.98729	0.14445
2405.05861	0.14467
2403.12994	0.14487
2401.20126	0.14504
2399.27259	0.14517
2397.34391	0.14528
2395.41524	0.14537
2393.48656	0.14553
2391.55788	0.14574
2389.62921	0.14594
2387.70053	0.14611
2385.77186	0.14627
2383.84318	0.14641
2381.91451	0.14651
2379.98583	0.14660
2378.05715	0.14671
2376.12848	0.14681
2374.19980	0.14687
2372.27113	0.14687
2370.34245	0.14686
2368.41378	0.14687
2366.48510	0.14694
2364.55642	0.14708
2362.62775	0.14728
2360.69907	0.14750
2358.77040	0.14770
2356.84172	0.14789
2354.91305	0.14812
2352.98437	0.14845
2351.05569	0.14882
2349.12702	0.14907
2347.19834	0.14913
2345.26967	0.14911
2343.34099	0.14916
2341.41232	0.14930
2339.48364	0.14947
2337.55496	0.14965
2335.62629	0.14981
2333.69761	0.14993
2331.76894	0.15004
2329.84026	0.15020
2327.91159	0.15042
2325.98291	0.15065
2324.05423	0.15090
2322.12556	0.15116
2320.19688	0.15140
2318.26821	0.15159
2316.33953	0.15179
2314.41086	0.15204
2312.48218	0.15231
2310.55350	0.15251
2308.62483	0.15267
2306.69615	0.15285
2304.76748	0.15304
2302.83880	0.15321
2300.91013	0.15341
2298.98145	0.15364
2297.05277	0.15384
2295.12410	0.15402
2293.19542	0.15418
2291.26675	0.15434
2289.33807	0.15451
2287.40940	0.15469
2285.48072	0.15486
2283.55204	0.15502
2281.62337	0.15514
2279.69469	0.15529
2277.76602	0.15548
2275.83734	0.15568
2273.90867	0.15586
2271.97999	0.15603
2270.05131	0.15619
2268.12264	0.15633
2266.19396	0.15646
2264.26529	0.15664
2262.33661	0.15683
2260.40794	0.15699
2258.47926	0.15714
2256.55058	0.15731
2254.62191	0.15746
2252.69323	0.15762
2250.76456	0.15782
2248.83588	0.15802
2246.90721	0.15819
2244.97853	0.15834
2243.04985	0.15847
2241.12118	0.15861
2239.19250	0.15875
2237.26383	0.15891
2235.33515	0.15908
2233.40648	0.15929
2231.47780	0.15948
2229.54912	0.15960
2227.62045	0.15972
2225.69177	0.15990
2223.76310	0.16012
2221.83442	0.16032
2219.90575	0.16048
2217.97707	0.16062
2216.04839	0.16072
2214.11972	0.16083
2212.19104	0.16099
2210.26237	0.16121
2208.33369	0.16144
2206.40502	0.16161
2204.47634	0.16173
2202.54766	0.16185
2200.61899	0.16203
2198.69031	0.16224
2196.76164	0.16245
2194.83296	0.16260
2192.90429	0.16271
2190.97561	0.16280
2189.04693	0.16291
2187.11826	0.16304
2185.18958	0.16322
2183.26091	0.16342
2181.33223	0.16362
2179.40356	0.16377
2177.47488	0.16389
2175.54620	0.16400
2173.61753	0.16419
2171.68885	0.16445
2169.76018	0.16470
2167.83150	0.16488
2165.90283	0.16501
2163.97415	0.16516
2162.04547	0.16533
2160.11680	0.16549
2158.18812	0.16566
2156.25945	0.16584
2154.33077	0.16602
2152.40210	0.16617
2150.47342	0.16633
2148.54474	0.16650
2146.61607	0.16665
2144.68739	0.16681
2142.75872	0.16702
2140.83004	0.16723
2138.90137	0.16735
2136.97269	0.16741
2135.04401	0.16756
2133.11534	0.16782
2131.18666	0.16806
2129.25799	0.16823
2127.32931	0.16833
2125.40064	0.16845
2123.47196	0.16860
2121.54328	0.16878
2119.61461	0.16899
2117.68593	0.16917
2115.75726	0.16932
2113.82858	0.16949
2111.89991	0.16968
2109.97123	0.16987
2108.04255	0.17003
2106.11388	0.17018
2104.18520	0.17034
2102.25653	0.17047
2100.32785	0.17059
2098.39918	0.17076
2096.47050	0.17099
2094.54182	0.17121
2092.61315	0.17136
2090.68447	0.17150
2088.75580	0.17164
2086.82712	0.17180
2084.89845	0.17199
2082.96977	0.17219
2081.04109	0.17236
2079.11242	0.17249
2077.18374	0.17262
2075.25507	0.17278
2073.32639	0.17294
2071.39772	0.17311
2069.46904	0.17333
2067.54036	0.17353
2065.61169	0.17367
2063.68301	0.17380
2061.75434	0.17396
2059.82566	0.17412
2057.89699	0.17427
2055.96831	0.17446
2054.03963	0.17465
2052.11096	0.17481
2050.18228	0.17494
2048.25361	0.17507
2046.32493	0.17520
2044.39626	0.17536
2042.46758	0.17556
2040.53890	0.17579
2038.61023	0.17598
2036.68155	0.17613
2034.75288	0.17626
2032.82420	0.17643
2030.89553	0.17664
2028.96685	0.17684
2027.03817	0.17699
2025.10950	0.17714
2023.18082	0.17729
2021.25215	0.17742
2019.32347	0.17756
2017.39480	0.17777
2015.46612	0.17801
2013.53744	0.17822
2011.60877	0.17838
2009.68009	0.17853
2007.75142	0.17869
2005.82274	0.17887
2003.89407	0.17907
2001.96539	0.17925
2000.03671	0.17941
1998.10804	0.17956
1996.17936	0.17969
1994.25069	0.17979
1992.32201	0.17991
1990.39334	0.18007
1988.46466	0.18025
1986.53598	0.18040
1984.60731	0.18056
1982.67863	0.18073
1980.74996	0.18091
1978.82128	0.18109
1976.89261	0.18124
1974.96393	0.18134
1973.03525	0.18141
1971.10658	0.18151
1969.17790	0.18166
1967.24923	0.18185
1965.32055	0.18205
1963.39188	0.18222
1961.46320	0.18234
1959.53452	0.18243
1957.60585	0.18256
1955.67717	0.18276
1953.74850	0.18299
1951.81982	0.18319
1949.89115	0.18334
1947.96247	0.18341
1946.03379	0.18347
1944.10512	0.18355
1942.17644	0.18374
1940.24777	0.18404
1938.31909	0.18428
1936.39042	0.18446
1934.46174	0.18459
1932.53306	0.18467
1930.60439	0.18479
1928.67571	0.18502
1926.74704	0.18527
1924.81836	0.18543
1922.88969	0.18556
1920.96101	0.18571
1919.03233	0.18584
1917.10366	0.18599
1915.17498	0.18623
1913.24631	0.18648
1911.31763	0.18665
1909.38896	0.18672
1907.46028	0.18682
1905.53160	0.18701
1903.60293	0.18723
1901.67425	0.18741
1899.74558	0.18755
1897.81690	0.18767
1895.88823	0.18778
1893.95955	0.18792
1892.03087	0.18808
1890.10220	0.18823
1888.17352	0.18842
1886.24485	0.18857
1884.31617	0.18868
1882.38750	0.18882
1880.45882	0.18900
1878.53014	0.18919
1876.60147	0.18940
1874.67279	0.18958
1872.74412	0.18965
1870.81544	0.18959
1868.88677	0.18965
1866.95809	0.18997
1865.02941	0.19034
1863.10074	0.19063
1861.17206	0.19083
1859.24339	0.19096
1857.31471	0.19108
1855.38604	0.19121
1853.45736	0.19139
1851.52868	0.19161
1849.60001	0.19178
1847.67133	0.19185
1845.74266	0.19182
1843.81398	0.19190
1841.88531	0.19221
1839.95663	0.19258
1838.02795	0.19283
1836.09928	0.19299
1834.17060	0.19313
1832.24193	0.19321
1830.31325	0.19322
1828.38458	0.19329
1826.45590	0.19347
1824.52722	0.19370
1822.59855	0.19394
1820.66987	0.19415
1818.74120	0.19430
1816.81252	0.19445
1814.88385	0.19462
1812.95517	0.19479
1811.02649	0.19495
1809.09782	0.19511
1807.16914	0.19524
1805.24047	0.19531
1803.31179	0.19533
1801.38312	0.19537
1799.45444	0.19558
1797.52576	0.19581
1795.59709	0.19585
1793.66841	0.19574
1791.73974	0.19582
1789.81106	0.19617
1787.88239	0.19647
1785.95371	0.19660
1784.02503	0.19672
1782.09636	0.19686
1780.16768	0.19697
1778.23901	0.19706
1776.31033	0.19714
1774.38166	0.19714
1772.45298	0.19709
1770.52430	0.19716
1768.59563	0.19739
1766.66695	0.19764
1764.73828	0.19778
1762.80960	0.19783
1760.88093	0.19795
1758.95225	0.19810
1757.02357	0.19817
1755.09490	0.19810
1753.16622	0.19776
1751.23755	0.19742
1749.30887	0.19754
1747.38020	0.19791
1745.45152	0.19814
1743.52284	0.19813
1741.59417	0.19796
1739.66549	0.19789
1737.73682	0.19799
1735.80814	0.19796
1733.87947	0.19793
1731.95079	0.19819
1730.02211	0.19853
1728.09344	0.19877
1726.16476	0.19898
1724.23609	0.19920
1722.30741	0.19935
1720.37874	0.19918
1718.45006	0.19882
1716.52138	0.19882
1714.59271	0.19927
1712.66403	0.19973
1710.73536	0.20001
1708.80668	0.20010
1706.87801	0.20006
1704.94933	0.20010
1703.02065	0.20007
1701.09198	0.19991
1699.16330	0.19993
1697.23463	0.20012
1695.30595	0.20037
1693.37728	0.20069
1691.44860	0.20082
1689.51992	0.20075
1687.59125	0.20064
1685.66257	0.20036
1683.73390	0.20018
1681.80522	0.20050
1679.87655	0.20089
1677.94787	0.20070
1676.01919	0.20022
1674.09052	0.20019
1672.16184	0.20050
1670.23317	0.20077
1668.30449	0.20108
1666.37582	0.20133
1664.44714	0.20136
1662.51846	0.20137
1660.58979	0.20152
1658.66111	0.20162
1656.73244	0.20131
1654.80376	0.20045
1652.87509	0.19992
1650.94641	0.20033
1649.01773	0.20089
1647.08906	0.20115
1645.16038	0.20150
1643.23171	0.20187
1641.30303	0.20195
1639.37436	0.20175
1637.44568	0.20151
1635.51700	0.20162
1633.58833	0.20207
1631.65965	0.20242
1629.73098	0.20245
1627.80230	0.20229
1625.87363	0.20204
1623.94495	0.20170
1622.01627	0.20144
1620.08760	0.20141
1618.15892	0.20166
1616.23025	0.20218
1614.30157	0.20280
1612.37290	0.20326
1610.44422	0.20359
1608.51554	0.20393
1606.58687	0.20427
1604.65819	0.20454
1602.72952	0.20470
1600.80084	0.20483
1598.87217	0.20499
1596.94349	0.20517
1595.01481	0.20536
1593.08614	0.20554
1591.15746	0.20572
1589.22879	0.20589
1587.30011	0.20602
1585.37144	0.20612
1583.44276	0.20627
1581.51408	0.20645
1579.58541	0.20644
1577.65673	0.20613
1575.72806	0.20608
1573.79938	0.20651
1571.87071	0.20685
1569.94203	0.20693
1568.01335	0.20710
1566.08468	0.20735
1564.15600	0.20747
1562.22733	0.20723
1560.29865	0.20670
1558.36998	0.20661
1556.44130	0.20725
1554.51262	0.20794
1552.58395	0.20825
1550.65527	0.20834
1548.72660	0.20841
1546.79792	0.20834
1544.86925	0.20804
1542.94057	0.20775
1541.01189	0.20780
1539.08322	0.20824
1537.15454	0.20867
1535.22587	0.20873
1533.29719	0.20878
1531.36852	0.20916
1529.43984	0.20949
1527.51116	0.20946
1525.58249	0.20923
1523.65381	0.20892
1521.72514	0.20883
1519.79646	0.20914
1517.86779	0.20947
1515.93911	0.20962
1514.01043	0.20975
1512.08176	0.20980
1510.15308	0.20950
1508.22441	0.20901
1506.29573	0.20913
1504.36706	0.20991
1502.43838	0.21047
1500.50970	0.21040
1498.58103	0.21002
1496.65235	0.20986
1494.72368	0.21009
1492.79500	0.21027
1490.86633	0.21014
1488.93765	0.20997
1487.00897	0.20998
1485.08030	0.21003
1483.15162	0.20996
1481.22295	0.20980
1479.29427	0.20959
1477.36560	0.20918
1475.43692	0.20855
1473.50824	0.20799
1471.57957	0.20778
1469.65089	0.20776
1467.72222	0.20755
1465.79354	0.20720
1463.86487	0.20709
1461.93619	0.20706
1460.00751	0.20656
1458.07884	0.20585
1456.15016	0.20574
1454.22149	0.20621
1452.29281	0.20661
1450.36414	0.20669
1448.43546	0.20665
1446.50678	0.20672
1444.57811	0.20690
1442.64943	0.20705
1440.72076	0.20713
1438.79208	0.20712
1436.86341	0.20713
1434.93473	0.20736
1433.00605	0.20762
1431.07738	0.20776
1429.14870	0.20790
1427.22003	0.20803
1425.29135	0.20807
1423.36268	0.20798
1421.43400	0.20757
1419.50532	0.20719
1417.57665	0.20743
1415.64797	0.20801
1413.71930	0.20835
1411.79062	0.20843
1409.86195	0.20842
1407.93327	0.20833
1406.00459	0.20819
1404.07592	0.20812
1402.14724	0.20816
1400.21857	0.20813
1398.28989	0.20800
1396.36122	0.20786
1394.43254	0.20781
1392.50386	0.20782
1390.57519	0.20776
1388.64651	0.20750
1386.71784	0.20715
1384.78916	0.20692
1382.86049	0.20687
1380.93181	0.20692
1379.00313	0.20700
1377.07446	0.20700
1375.14578	0.20687
1373.21711	0.20681
1371.28843	0.20687
1369.35976	0.20691
1367.43108	0.20691
1365.50240	0.20685
1363.57373	0.20675
1361.64505	0.20675
1359.71638	0.20686
1357.78770	0.20693
1355.85903	0.20690
1353.93035	0.20691
1352.00167	0.20706
1350.07300	0.20727
1348.14432	0.20739
1346.21565	0.20740
1344.28697	0.20737
1342.35830	0.20731
1340.42962	0.20724
1338.50094	0.20724
1336.57227	0.20725
1334.64359	0.20719
1332.71492	0.20706
1330.78624	0.20691
1328.85757	0.20676
1326.92889	0.20661
1325.00021	0.20648
1323.07154	0.20629
1321.14286	0.20605
1319.21419	0.20582
1317.28551	0.20563
1315.35684	0.20544
1313.42816	0.20532
1311.49948	0.20525
1309.57081	0.20508
1307.64213	0.20478
1305.71346	0.20446
1303.78478	0.20421
1301.85611	0.20405
1299.92743	0.20393
1297.99875	0.20380
1296.07008	0.20360
1294.14140	0.20334
1292.21273	0.20307
1290.28405	0.20285
1288.35538	0.20272
1286.42670	0.20262
1284.49802	0.20242
1282.56935	0.20208
1280.64067	0.20171
1278.71200	0.20138
1276.78332	0.20104
1274.85465	0.20068
1272.92597	0.20028
1270.99729	0.19970
1269.06862	0.19876
1267.13994	0.19767
1265.21127	0.19680
1263.28259	0.19630
1261.35392	0.19616
1259.42524	0.19627
1257.49656	0.19643
1255.56789	0.19649
1253.63921	0.19641
1251.71054	0.19623
1249.78186	0.19599
1247.85319	0.19574
1245.92451	0.19547
1243.99583	0.19511
1242.06716	0.19464
1240.13848	0.19406
1238.20981	0.19351
1236.28113	0.19309
1234.35246	0.19265
1232.42378	0.19206
1230.49510	0.19137
1228.56643	0.19072
1226.63775	0.19015
1224.70908	0.18970
1222.78040	0.18936
1220.85173	0.18896
1218.92305	0.18843
1216.99437	0.18781
1215.06570	0.18720
1213.13702	0.18666
1211.20835	0.18616
1209.27967	0.18562
1207.35100	0.18502
1205.42232	0.18437
1203.49364	0.18372
1201.56497	0.18311
1199.63629	0.18251
1197.70762	0.18192
1195.77894	0.18133
1193.85027	0.18074
1191.92159	0.18007
1189.99291	0.17927
1188.06424	0.17849
1186.13556	0.17779
1184.20689	0.17712
1182.27821	0.17638
1180.34954	0.17552
1178.42086	0.17453
1176.49218	0.17355
1174.56351	0.17270
1172.63483	0.17191
1170.70616	0.17108
1168.77748	0.17026
1166.84881	0.16942
1164.92013	0.16848
1162.99145	0.16753
1161.06278	0.16667
1159.13410	0.16592
1157.20543	0.16519
1155.27675	0.16441
1153.34808	0.16355
1151.41940	0.16269
1149.49072	0.16188
1147.56205	0.16107
1145.63337	0.16022
1143.70470	0.15935
1141.77602	0.15841
1139.84735	0.15734
1137.91867	0.15618
1135.98999	0.15493
1134.06132	0.15353
1132.13264	0.15196
1130.20397	0.15017
1128.27529	0.14807
1126.34662	0.14568
1124.41794	0.14317
1122.48926	0.14076
1120.56059	0.13848
1118.63191	0.13624
1116.70324	0.13409
1114.77456	0.13217
1112.84589	0.13051
1110.91721	0.12917
1108.98853	0.12817
1107.05986	0.12750
1105.13118	0.12710
1103.20251	0.12690
1101.27383	0.12696
1099.34516	0.12731
1097.41648	0.12796
1095.48780	0.12881
1093.55913	0.12972
1091.63045	0.13060
1089.70178	0.13142
1087.77310	0.13215
1085.84443	0.13277
1083.91575	0.13331
1081.98707	0.13381
1080.05840	0.13421
1078.12972	0.13442
1076.20105	0.13446
1074.27237	0.13442
1072.34370	0.13446
1070.41502	0.13466
1068.48634	0.13493
1066.55767	0.13512
1064.62899	0.13520
1062.70032	0.13528
1060.77164	0.13543
1058.84297	0.13567
1056.91429	0.13599
1054.98561	0.13638
1053.05694	0.13678
1051.12826	0.13707
1049.19959	0.13725
1047.27091	0.13755
1045.34224	0.13805
1043.41356	0.13857
1041.48488	0.13899
1039.55621	0.13937
1037.62753	0.13968
1035.69886	0.13995
1033.77018	0.14027
1031.84151	0.14069
1029.91283	0.14112
1027.98415	0.14149
1026.05548	0.14183
1024.12680	0.14216
1022.19813	0.14248
1020.26945	0.14282
1018.34078	0.14328
1016.41210	0.14388
1014.48342	0.14452
1012.55475	0.14505
1010.62607	0.14550
1008.69740	0.14604
1006.76872	0.14665
1004.84005	0.14725
1002.91137	0.14773
1000.98269	0.14804
999.05402	0.14824
997.12534	0.14845
995.19667	0.14864
993.26799	0.14878
991.33932	0.14886
989.41064	0.14885
987.48196	0.14878
985.55329	0.14871
983.62461	0.14872
981.69594	0.14878
979.76726	0.14876
977.83859	0.14864
975.90991	0.14848
973.98123	0.14828
972.05256	0.14806
970.12388	0.14785
968.19521	0.14768
966.26653	0.14762
964.33786	0.14757
962.40918	0.14741
960.48050	0.14712
958.55183	0.14683
956.62315	0.14666
954.69448	0.14655
952.76580	0.14641
950.83713	0.14622
948.90845	0.14596
946.97977	0.14568
945.05110	0.14545
943.12242	0.14526
941.19375	0.14500
939.26507	0.14459
937.33640	0.14405
935.40772	0.14350
933.47904	0.14305
931.55037	0.14261
929.62169	0.14211
927.69302	0.14159
925.76434	0.14105
923.83567	0.14042
921.90699	0.13974
919.97831	0.13910
918.04964	0.13849
916.12096	0.13787
914.19229	0.13723
912.26361	0.13648
910.33494	0.13564
908.40626	0.13485
906.47758	0.13417
904.54891	0.13356
902.62023	0.13298
900.69156	0.13244
898.76288	0.13196
896.83421	0.13142
894.90553	0.13079
892.97685	0.13019
891.04818	0.12978
889.11950	0.12948
887.19083	0.12913
885.26215	0.12867
883.33348	0.12814
881.40480	0.12768
879.47612	0.12740
877.54745	0.12721
875.61877	0.12702
873.69010	0.12680
871.76142	0.12651
869.83275	0.12608
867.90407	0.12565
865.97539	0.12544
864.04672	0.12540
862.11804	0.12537
860.18937	0.12531
858.26069	0.12519
856.33202	0.12502
854.40334	0.12484
852.47466	0.12469
850.54599	0.12446
848.61731	0.12410
846.68864	0.12370
844.75996	0.12338
842.83129	0.12310
840.90261	0.12281
838.97394	0.12256
837.04526	0.12226
835.11658	0.12171
833.18791	0.12087
831.25923	0.11982
829.33056	0.11866
827.40188	0.11757
825.47321	0.11664
823.54453	0.11577
821.61585	0.11489
819.68718	0.11408
817.75850	0.11346
815.82983	0.11301
813.90115	0.11269
811.97248	0.11249
810.04380	0.11233
808.11512	0.11208
806.18645	0.11179
804.25777	0.11158
802.32910	0.11151
800.40042	0.11145
798.47175	0.11111
796.54307	0.11048
794.61439	0.10979
792.68572	0.10922
790.75704	0.10885
788.82837	0.10869
786.89969	0.10859
784.97102	0.10843
783.04234	0.10819
781.11366	0.10786
779.18499	0.10743
777.25631	0.10699
775.32764	0.10669
773.39896	0.10644
771.47029	0.10613
769.54161	0.10576
767.61293	0.10537
765.68426	0.10496
763.75558	0.10456
761.82691	0.10413
759.89823	0.10360
757.96956	0.10300
756.04088	0.10239
754.11220	0.10176
752.18353	0.10112
750.25485	0.10047
748.32618	0.09981
746.39750	0.09909
744.46883	0.09821
742.54015	0.09715
740.61147	0.09617
738.68280	0.09558
736.75412	0.09547
734.82545	0.09567
732.89677	0.09587
730.96810	0.09583
729.03942	0.09569
727.11074	0.09571
725.18207	0.09593
723.25339	0.09616
721.32472	0.09629
719.39604	0.09641
717.46737	0.09656
715.53869	0.09681
713.61001	0.09725
711.68134	0.09780
709.75266	0.09820
707.82399	0.09836
705.89531	0.09829
703.96664	0.09799
702.03796	0.09759
700.10928	0.09726
698.18061	0.09695
696.25193	0.09650
694.32326	0.09586
692.39458	0.09508
690.46591	0.09433
688.53723	0.09377
686.60855	0.09340
684.67988	0.09309
682.75120	0.09269
680.82253	0.09212
678.89385	0.09142
676.96518	0.09066
675.03650	0.08992
673.10782	0.08931
671.17915	0.08875
669.25047	0.08799
667.32180	0.08702
665.39312	0.08602
663.46445	0.08512
661.53577	0.08434
659.60709	0.08366
657.67842	0.08295
655.74974	0.08206
653.82107	0.08102
651.89239	0.08003
649.96372	0.07919
648.03504	0.07846
646.10636	0.07775
644.17769	0.07696
642.24901	0.07601
640.32034	0.07488
638.39166	0.07368
636.46299	0.07253
634.53431	0.07142
632.60563	0.06998
630.67696	0.06755
628.74828	0.06383
626.81961	0.05918
624.89093	0.05456
622.96226	0.05100
621.03358	0.04887
619.10490	0.04782
617.17623	0.04710
615.24755	0.04612
613.31888	0.04486
611.39020	0.04373
609.46153	0.04318
607.53285	0.04330
605.60417	0.04378
603.67550	0.04434
601.74682	0.04497
599.81815	0.04576
597.88947	0.04666
595.96080	0.04749
594.03212	0.04815
592.10344	0.04857
590.17477	0.04863
588.24609	0.04844
586.31742	0.04827
584.38874	0.04810
582.46007	0.04787
580.53139	0.04763
578.60271	0.04726
576.67404	0.04665
574.74536	0.04593
572.81669	0.04524
570.88801	0.04462
568.95934	0.04410
567.03066	0.04364
565.10198	0.04317
563.17331	0.04272
561.24463	0.04242
559.31596	0.04224
557.38728	0.04208
555.45861	0.04194
553.52993	0.04176
551.60125	0.04147
549.67258	0.04113
547.74390	0.04087
545.81523	0.04073
543.88655	0.04066
541.95788	0.04055
540.02920	0.04037
538.10052	0.04017
536.17185	0.03994
534.24317	0.03972
532.31450	0.03957
530.38582	0.03939
528.45715	0.03915
526.52847	0.03885
524.59979	0.03842
522.67112	0.03795
520.74244	0.03749
518.81377	0.03697
516.88509	0.03645
514.95642	0.03596
513.02774	0.03535
511.09906	0.03475
509.17039	0.03443
507.24171	0.03440
505.31304	0.03441
503.38436	0.03420
501.45569	0.03366
499.52701	0.03293
497.59833	0.03227
495.66966	0.03181
493.74098	0.03149
491.81231	0.03120
489.88363	0.03071
487.95496	0.02994
486.02628	0.02905
484.09760	0.02832
482.16893	0.02783
480.24025	0.02748
478.31158	0.02714
476.38290	0.02662
474.45423	0.02592
472.52555	0.02522
470.59687	0.02472
468.66820	0.02445
466.73952	0.02426
464.81085	0.02401
462.88217	0.02363
460.95350	0.02323
459.02482	0.02297
457.09614	0.02296
455.16747	0.02310
453.23879	0.02331
451.31012	0.02348
449.38144	0.02345
447.45277	0.02314
445.52409	0.02274
443.59541	0.02253
441.66674	0.02247
439.73806	0.02222
437.80939	0.02161
435.88071	0.02089
433.95204	0.02025
432.02336	0.01970
430.09468	0.01923
428.16601	0.01878
426.23733	0.01826
424.30866	0.01756
422.37998	0.01673
420.45131	0.01596
418.52263	0.01532
416.59395	0.01473
414.66528	0.01418
412.73660	0.01365
410.80793	0.01299
408.87925	0.01217
406.95058	0.01145
405.02190	0.01103
403.09322	0.01066
401.16455	0.01012
399.23587	0.00939
397.30720	0.00856
395.37852	0.00787
393.44985	0.00742
391.52117	0.00706
389.59249	0.00671
387.66382	0.00627
385.73514	0.00575
383.80647	0.00524
381.87779	0.00476
379.94912	0.00437
378.02044	0.00417
376.09176	0.00396
374.16309	0.00354
372.23441	0.00301
370.30574	0.00248
368.37706	0.00210
