7496.76250	0.00123
7494.83382	0.00122
7492.90514	0.00120
7490.97647	0.00119
7489.04779	0.00120
7487.11912	0.00122
7485.19044	0.00123
7483.26177	0.00124
7481.33309	0.00124
7479.40441	0.00124
7477.47574	0.00125
7475.54706	0.00124
7473.61839	0.00124
7471.68971	0.00126
7469.76104	0.00127
7467.83236	0.00127
7465.90368	0.00126
7463.97501	0.00125
7462.04633	0.00124
7460.11766	0.00124
7458.18898	0.00126
7456.26031	0.00128
7454.33163	0.00129
7452.40295	0.00129
7450.47428	0.00129
7448.54560	0.00129
7446.61693	0.00131
7444.68825	0.00132
7442.75958	0.00131
7440.83090	0.00130
7438.90222	0.00130
7436.97355	0.00130
7435.04487	0.00130
7433.11620	0.00131
7431.18752	0.00131
7429.25885	0.00132
7427.33017	0.00132
7425.40149	0.00132
7423.47282	0.00132
7421.54414	0.00134
7419.61547	0.00135
7417.68679	0.00135
7415.75812	0.00135
7413.82944	0.00135
7411.90076	0.00136
7409.97209	0.00137
7408.04341	0.00138
7406.11474	0.00137
7404.18606	0.00137
7402.25739	0.00138
7400.32871	0.00139
7398.40003	0.00139
7396.47136	0.00140
7394.54268	0.00141
7392.61401	0.00141
7390.68533	0.00140
7388.75666	0.00140
7386.82798	0.00140
7384.89930	0.00141
7382.97063	0.00141
7381.04195	0.00142
7379.11328	0.00142
7377.18460	0.00142
7375.25593	0.00143
7373.32725	0.00144
7371.39857	0.00144
7369.46990	0.00144
7367.54122	0.00145
7365.61255	0.00145
7363.68387	0.00145
7361.75520	0.00146
7359.82652	0.00145
7357.89784	0.00144
7355.96917	0.00146
7354.04049	0.00148
7352.11182	0.00148
7350.18314	0.00148
7348.25447	0.00148
7346.32579	0.00148
7344.39711	0.00149
7342.46844	0.00149
7340.53976	0.00148
7338.61109	0.00148
7336.68241	0.00149
7334.75374	0.00151
7332.82506	0.00151
7330.89638	0.00150
7328.96771	0.00150
7327.03903	0.00151
7325.11036	0.00151
7323.18168	0.00151
7321.25301	0.00152
7319.32433	0.00153
7317.39565	0.00153
7315.46698	0.00152
7313.53830	0.00152
7311.60963	0.00153
7309.68095	0.00154
7307.75228	0.00154
7305.82360	0.00155
7303.89492	0.00155
7301.96625	0.00155
7300.03757	0.00153
7298.10890	0.00153
7296.18022	0.00155
7294.25155	0.00157
7292.32287	0.00157
7290.39419	0.00157
7288.46552	0.00156
7286.53684	0.00156
7284.60817	0.00158
7282.67949	0.00159
7280.75082	0.00160
7278.82214	0.00160
7276.89346	0.00160
7274.96479	0.00161
7273.03611	0.00161
7271.10744	0.00161
7269.17876	0.00161
7267.25009	0.00162
7265.32141	0.00163
7263.39273	0.00163
7261.46406	0.00164
7259.53538	0.00165
7257.60671	0.00165
7255.67803	0.00164
7253.74936	0.00164
7251.82068	0.00166
7249.89200	0.00168
7247.96333	0.00168
7246.03465	0.00168
7244.10598	0.00168
7242.17730	0.00169
7240.24863	0.00168
7238.31995	0.00168
7236.39127	0.00169
7234.46260	0.00170
7232.53392	0.00171
7230.60525	0.00171
7228.67657	0.00171
7226.74790	0.00172
7224.81922	0.00173
7222.89054	0.00173
7220.96187	0.00173
7219.03319	0.00173
7217.10452	0.00173
7215.17584	0.00173
7213.24717	0.00173
7211.31849	0.00174
7209.38981	0.00174
7207.46114	0.00173
7205.53246	0.00174
7203.60379	0.00176
7201.67511	0.00177
7199.74644	0.00177
7197.81776	0.00177
7195.88908	0.00177
7193.96041	0.00178
7192.03173	0.00178
7190.10306	0.00179
7188.17438	0.00178
7186.24571	0.00178
7184.31703	0.00178
7182.38835	0.00178
7180.45968	0.00179
7178.53100	0.00179
7176.60233	0.00181
7174.67365	0.00182
7172.74498	0.00182
7170.81630	0.00183
7168.88762	0.00185
7166.95895	0.00184
7165.03027	0.00184
7163.10160	0.00183
7161.17292	0.00183
7159.24425	0.00183
7157.31557	0.00186
7155.38689	0.00187
7153.45822	0.00187
7151.52954	0.00188
7149.60087	0.00190
7147.67219	0.00190
7145.74352	0.00189
7143.81484	0.00188
7141.88616	0.00188
7139.95749	0.00189
7138.02881	0.00190
7136.10014	0.00189
7134.17146	0.00187
7132.24279	0.00187
7130.31411	0.00189
7128.38543	0.00191
7126.45676	0.00191
7124.52808	0.00191
7122.59941	0.00192
7120.67073	0.00193
7118.74206	0.00193
7116.81338	0.00193
7114.88470	0.00193
7112.95603	0.00193
7111.02735	0.00194
7109.09868	0.00195
7107.17000	0.00196
7105.24133	0.00197
7103.31265	0.00197
7101.38397	0.00197
7099.45530	0.00198
7097.52662	0.00199
7095.59795	0.00199
7093.66927	0.00199
7091.74060	0.00200
7089.81192	0.00199
7087.88324	0.00199
7085.95457	0.00199
7084.02589	0.00199
7082.09722	0.00198
7080.16854	0.00199
7078.23987	0.00201
7076.31119	0.00202
7074.38251	0.00202
7072.45384	0.00200
7070.52516	0.00201
7068.59649	0.00204
7066.66781	0.00207
7064.73914	0.00207
7062.81046	0.00207
7060.88178	0.00207
7058.95311	0.00207
7057.02443	0.00208
7055.09576	0.00208
7053.16708	0.00208
7051.23841	0.00209
7049.30973	0.00211
7047.38105	0.00211
7045.45238	0.00211
7043.52370	0.00211
7041.59503	0.00211
7039.66635	0.00211
7037.73768	0.00212
7035.80900	0.00214
7033.88032	0.00214
7031.95165	0.00212
7030.02297	0.00211
7028.09430	0.00212
7026.16562	0.00213
7024.23695	0.00213
7022.30827	0.00214
7020.37959	0.00214
7018.45092	0.00215
7016.52224	0.00216
7014.59357	0.00217
7012.66489	0.00218
7010.73622	0.00219
7008.80754	0.00219
7006.87886	0.00217
7004.95019	0.00217
7003.02151	0.00221
7001.09284	0.00223
6999.16416	0.00223
6997.23549	0.00222
6995.30681	0.00221
6993.37813	0.00221
6991.44946	0.00222
6989.52078	0.00223
6987.59211	0.00222
6985.66343	0.00222
6983.73476	0.00222
6981.80608	0.00223
6979.87740	0.00226
6977.94873	0.00226
6976.02005	0.00225
6974.09138	0.00226
6972.16270	0.00229
6970.23403	0.00230
6968.30535	0.00230
6966.37667	0.00229
6964.44800	0.00229
6962.51932	0.00229
6960.59065	0.00229
6958.66197	0.00230
6956.73330	0.00231
6954.80462	0.00232
6952.87594	0.00233
6950.94727	0.00232
6949.01859	0.00232
6947.08992	0.00232
6945.16124	0.00233
6943.23257	0.00235
6941.30389	0.00236
6939.37521	0.00236
6937.44654	0.00236
6935.51786	0.00237
6933.58919	0.00237
6931.66051	0.00237
6929.73184	0.00238
6927.80316	0.00240
6925.87448	0.00240
6923.94581	0.00240
6922.01713	0.00239
6920.08846	0.00238
6918.15978	0.00239
6916.23111	0.00240
6914.30243	0.00242
6912.37375	0.00243
6910.44508	0.00245
6908.51640	0.00246
6906.58773	0.00245
6904.65905	0.00244
6902.73038	0.00244
6900.80170	0.00244
6898.87302	0.00245
6896.94435	0.00247
6895.01567	0.00248
6893.08700	0.00248
6891.15832	0.00248
6889.22965	0.00248
6887.30097	0.00248
6885.37229	0.00248
6883.44362	0.00248
6881.51494	0.00248
6879.58627	0.00250
6877.65759	0.00251
6875.72892	0.00251
6873.80024	0.00252
6871.87156	0.00253
6869.94289	0.00253
6868.01421	0.00253
6866.08554	0.00254
6864.15686	0.00255
6862.22819	0.00256
6860.29951	0.00257
6858.37083	0.00258
6856.44216	0.00259
6854.51348	0.00260
6852.58481	0.00261
6850.65613	0.00261
6848.72746	0.00261
6846.79878	0.00261
6844.87010	0.00261
6842.94143	0.00262
6841.01275	0.00263
6839.08408	0.00264
6837.15540	0.00264
6835.22673	0.00263
6833.29805	0.00263
6831.36937	0.00265
6829.44070	0.00266
6827.51202	0.00265
6825.58335	0.00264
6823.65467	0.00266
6821.72600	0.00268
6819.79732	0.00269
6817.86864	0.00269
6815.93997	0.00269
6814.01129	0.00269
6812.08262	0.00269
6810.15394	0.00269
6808.22527	0.00271
6806.29659	0.00271
6804.36791	0.00272
6802.43924	0.00274
6800.51056	0.00275
6798.58189	0.00276
6796.65321	0.00276
6794.72454	0.00275
6792.79586	0.00275
6790.86718	0.00277
6788.93851	0.00278
6787.00983	0.00279
6785.08116	0.00278
6783.15248	0.00279
6781.22381	0.00279
6779.29513	0.00279
6777.36645	0.00279
6775.43778	0.00280
6773.50910	0.00281
6771.58043	0.00281
6769.65175	0.00282
6767.72308	0.00284
6765.79440	0.00284
6763.86572	0.00284
6761.93705	0.00287
6760.00837	0.00288
6758.07970	0.00288
6756.15102	0.00288
6754.22235	0.00290
6752.29367	0.00290
6750.36499	0.00289
6748.43632	0.00289
6746.50764	0.00290
6744.57897	0.00290
6742.65029	0.00291
6740.72162	0.00292
6738.79294	0.00291
6736.86426	0.00292
6734.93559	0.00293
6733.00691	0.00294
6731.07824	0.00295
6729.14956	0.00296
6727.22089	0.00297
6725.29221	0.00298
6723.36353	0.00299
6721.43486	0.00300
6719.50618	0.00301
6717.57751	0.00302
6715.64883	0.00301
6713.72016	0.00301
6711.79148	0.00302
6709.86280	0.00302
6707.93413	0.00302
6706.00545	0.00303
6704.07678	0.00303
6702.14810	0.00304
6700.21943	0.00304
6698.29075	0.00305
6696.36207	0.00306
6694.43340	0.00307
6692.50472	0.00308
6690.57605	0.00308
6688.64737	0.00308
6686.71870	0.00309
6684.79002	0.00311
6682.86134	0.00312
6680.93267	0.00312
6679.00399	0.00313
6677.07532	0.00315
6675.14664	0.00316
6673.21797	0.00316
6671.28929	0.00316
6669.36061	0.00316
6667.43194	0.00315
6665.50326	0.00315
6663.57459	0.00316
6661.64591	0.00317
6659.71724	0.00319
6657.78856	0.00320
6655.85988	0.00320
6653.93121	0.00319
6652.00253	0.00319
6650.07386	0.00320
6648.14518	0.00322
6646.21651	0.00323
6644.28783	0.00324
6642.35915	0.00325
6640.43048	0.00326
6638.50180	0.00327
6636.57313	0.00328
6634.64445	0.00329
6632.71578	0.00328
6630.78710	0.00329
6628.85842	0.00330
6626.92975	0.00332
6625.00107	0.00334
6623.07240	0.00333
6621.14372	0.00332
6619.21505	0.00333
6617.28637	0.00334
6615.35769	0.00335
6613.42902	0.00335
6611.50034	0.00336
6609.57167	0.00337
6607.64299	0.00337
6605.71432	0.00337
6603.78564	0.00337
6601.85696	0.00339
6599.92829	0.00341
6597.99961	0.00341
6596.07094	0.00340
6594.14226	0.00340
6592.21359	0.00341
6590.28491	0.00342
6588.35623	0.00343
6586.42756	0.00344
6584.49888	0.00345
6582.57021	0.00345
6580.64153	0.00345
6578.71286	0.00346
6576.78418	0.00348
6574.85550	0.00350
6572.92683	0.00351
6570.99815	0.00352
6569.06948	0.00353
6567.14080	0.00354
6565.21213	0.00354
6563.28345	0.00354
6561.35477	0.00355
6559.42610	0.00355
6557.49742	0.00356
6555.56875	0.00356
6553.64007	0.00355
6551.71140	0.00356
6549.78272	0.00358
6547.85404	0.00360
6545.92537	0.00360
6543.99669	0.00360
6542.06802	0.00361
6540.13934	0.00361
6538.21067	0.00363
6536.28199	0.00365
6534.35331	0.00367
6532.42464	0.00367
6530.49596	0.00366
6528.56729	0.00366
6526.63861	0.00366
6524.70994	0.00365
6522.78126	0.00366
6520.85258	0.00369
6518.92391	0.00371
6516.99523	0.00372
6515.06656	0.00373
6513.13788	0.00372
6511.20921	0.00372
6509.28053	0.00373
6507.35185	0.00376
6505.42318	0.00378
6503.49450	0.00378
6501.56583	0.00378
6499.63715	0.00379
6497.70848	0.00381
6495.77980	0.00381
6493.85112	0.00380
6491.92245	0.00380
6489.99377	0.00381
6488.06510	0.00383
6486.13642	0.00384
6484.20775	0.00384
6482.27907	0.00384
6480.35039	0.00384
6478.42172	0.00385
6476.49304	0.00386
6474.56437	0.00387
6472.63569	0.00387
6470.70702	0.00387
6468.77834	0.00389
6466.84966	0.00391
6464.92099	0.00393
6462.99231	0.00393
6461.06364	0.00393
6459.13496	0.00395
6457.20629	0.00397
6455.27761	0.00397
6453.34893	0.00397
6451.42026	0.00398
6449.49158	0.00400
6447.56291	0.00401
6445.63423	0.00402
6443.70556	0.00402
6441.77688	0.00402
6439.84820	0.00404
6437.91953	0.00405
6435.99085	0.00406
6434.06218	0.00405
6432.13350	0.00405
6430.20483	0.00407
6428.27615	0.00409
6426.34747	0.00412
6424.41880	0.00413
6422.49012	0.00412
6420.56145	0.00412
6418.63277	0.00413
6416.70410	0.00414
6414.77542	0.00415
6412.84674	0.00417
6410.91807	0.00418
6408.98939	0.00417
6407.06072	0.00416
6405.13204	0.00417
6403.20337	0.00419
6401.27469	0.00421
6399.34601	0.00420
6397.41734	0.00420
6395.48866	0.00421
6393.55999	0.00422
6391.63131	0.00422
6389.70264	0.00424
6387.77396	0.00427
6385.84528	0.00430
6383.91661	0.00431
6381.98793	0.00432
6380.05926	0.00431
6378.13058	0.00430
6376.20191	0.00432
6374.27323	0.00434
6372.34455	0.00435
6370.41588	0.00435
6368.48720	0.00436
6366.55853	0.00436
6364.62985	0.00437
6362.70118	0.00438
6360.77250	0.00439
6358.84382	0.00441
6356.91515	0.00443
6354.98647	0.00444
6353.05780	0.00444
6351.12912	0.00445
6349.20045	0.00445
6347.27177	0.00446
6345.34309	0.00446
6343.41442	0.00446
6341.48574	0.00446
6339.55707	0.00447
6337.62839	0.00448
6335.69972	0.00449
6333.77104	0.00449
6331.84236	0.00449
6329.91369	0.00451
6327.98501	0.00453
6326.05634	0.00455
6324.12766	0.00456
6322.19899	0.00457
6320.27031	0.00458
6318.34163	0.00457
6316.41296	0.00458
6314.48428	0.00459
6312.55561	0.00460
6310.62693	0.00462
6308.69826	0.00463
6306.76958	0.00463
6304.84090	0.00465
6302.91223	0.00468
6300.98355	0.00469
6299.05488	0.00468
6297.12620	0.00468
6295.19753	0.00468
6293.26885	0.00471
6291.34017	0.00474
6289.41150	0.00476
6287.48282	0.00475
6285.55415	0.00474
6283.62547	0.00474
6281.69680	0.00475
6279.76812	0.00476
6277.83944	0.00478
6275.91077	0.00480
6273.98209	0.00480
6272.05342	0.00481
6270.12474	0.00483
6268.19607	0.00484
6266.26739	0.00485
6264.33871	0.00487
6262.41004	0.00488
6260.48136	0.00489
6258.55269	0.00490
6256.62401	0.00491
6254.69534	0.00492
6252.76666	0.00494
6250.83798	0.00495
6248.90931	0.00494
6246.98063	0.00495
6245.05196	0.00496
6243.12328	0.00498
6241.19461	0.00501
6239.26593	0.00503
6237.33725	0.00504
6235.40858	0.00502
6233.47990	0.00500
6231.55123	0.00499
6229.62255	0.00502
6227.69388	0.00505
6225.76520	0.00508
6223.83652	0.00509
6221.90785	0.00510
6219.97917	0.00511
6218.05050	0.00512
6216.12182	0.00513
6214.19315	0.00513
6212.26447	0.00514
6210.33579	0.00515
6208.40712	0.00516
6206.47844	0.00517
6204.54977	0.00518
6202.62109	0.00519
6200.69242	0.00521
6198.76374	0.00522
6196.83506	0.00523
6194.90639	0.00524
6192.97771	0.00524
6191.04904	0.00524
6189.12036	0.00525
6187.19169	0.00526
6185.26301	0.00526
6183.33433	0.00527
6181.40566	0.00529
6179.47698	0.00531
6177.54831	0.00533
6175.61963	0.00534
6173.69096	0.00536
6171.76228	0.00537
6169.83360	0.00539
6167.90493	0.00539
6165.97625	0.00540
6164.04758	0.00542
6162.11890	0.00544
6160.19023	0.00544
6158.26155	0.00545
6156.33287	0.00546
6154.40420	0.00548
6152.47552	0.00549
6150.54685	0.00550
6148.61817	0.00552
6146.68950	0.00554
6144.76082	0.00554
6142.83214	0.00554
6140.90347	0.00555
6138.97479	0.00558
6137.04612	0.00560
6135.11744	0.00560
6133.18877	0.00559
6131.26009	0.00559
6129.33141	0.00559
6127.40274	0.00561
6125.47406	0.00564
6123.54539	0.00567
6121.61671	0.00568
6119.68804	0.00570
6117.75936	0.00571
6115.83068	0.00573
6113.90201	0.00573
6111.97333	0.00574
6110.04466	0.00575
6108.11598	0.00575
6106.18731	0.00576
6104.25863	0.00576
6102.32995	0.00576
6100.40128	0.00576
6098.47260	0.00577
6096.54393	0.00578
6094.61525	0.00579
6092.68658	0.00581
6090.75790	0.00583
6088.82922	0.00585
6086.90055	0.00586
6084.97187	0.00587
6083.04320	0.00588
6081.11452	0.00590
6079.18585	0.00593
6077.25717	0.00595
6075.32849	0.00597
6073.39982	0.00599
6071.47114	0.00601
6069.54247	0.00602
6067.61379	0.00603
6065.68512	0.00603
6063.75644	0.00603
6061.82776	0.00603
6059.89909	0.00604
6057.97041	0.00605
6056.04174	0.00607
6054.11306	0.00609
6052.18439	0.00609
6050.25571	0.00611
6048.32703	0.00614
6046.39836	0.00616
6044.46968	0.00617
6042.54101	0.00618
6040.61233	0.00619
6038.68366	0.00620
6036.75498	0.00621
6034.82630	0.00624
6032.89763	0.00625
6030.96895	0.00626
6029.04028	0.00627
6027.11160	0.00627
6025.18293	0.00628
6023.25425	0.00628
6021.32557	0.00630
6019.39690	0.00633
6017.46822	0.00634
6015.53955	0.00634
6013.61087	0.00634
6011.68220	0.00636
6009.75352	0.00638
6007.82484	0.00640
6005.89617	0.00641
6003.96749	0.00642
6002.03882	0.00642
6000.11014	0.00640
5998.18147	0.00641
5996.25279	0.00644
5994.32411	0.00647
5992.39544	0.00648
5990.46676	0.00649
5988.53809	0.00650
5986.60941	0.00652
5984.68074	0.00653
5982.75206	0.00655
5980.82338	0.00658
5978.89471	0.00659
5976.96603	0.00660
5975.03736	0.00663
5973.10868	0.00665
5971.18001	0.00666
5969.25133	0.00666
5967.32265	0.00667
5965.39398	0.00668
5963.46530	0.00670
5961.53663	0.00672
5959.60795	0.00674
5957.67928	0.00675
5955.75060	0.00676
5953.82192	0.00679
5951.89325	0.00681
5949.96457	0.00681
5948.03590	0.00681
5946.10722	0.00682
5944.17855	0.00684
5942.24987	0.00686
5940.32119	0.00688
5938.39252	0.00689
5936.46384	0.00689
5934.53517	0.00690
5932.60649	0.00691
5930.67782	0.00692
5928.74914	0.00693
5926.82046	0.00696
5924.89179	0.00700
5922.96311	0.00703
5921.03444	0.00704
5919.10576	0.00703
5917.17709	0.00702
5915.24841	0.00703
5913.31973	0.00706
5911.39106	0.00709
5909.46238	0.00710
5907.53371	0.00710
5905.60503	0.00711
5903.67636	0.00714
5901.74768	0.00716
5899.81900	0.00718
5897.89033	0.00719
5895.96165	0.00720
5894.03298	0.00722
5892.10430	0.00723
5890.17563	0.00724
5888.24695	0.00724
5886.31827	0.00726
5884.38960	0.00730
5882.46092	0.00733
5880.53225	0.00733
5878.60357	0.00731
5876.67490	0.00732
5874.74622	0.00734
5872.81755	0.00736
5870.88887	0.00739
5868.96019	0.00742
5867.03152	0.00744
5865.10284	0.00744
5863.17417	0.00744
5861.24549	0.00747
5859.31682	0.00750
5857.38814	0.00752
5855.45946	0.00752
5853.53079	0.00753
5851.60211	0.00755
5849.67344	0.00757
5847.74476	0.00758
5845.81609	0.00761
5843.88741	0.00763
5841.95873	0.00762
5840.03006	0.00762
5838.10138	0.00763
5836.17271	0.00767
5834.24403	0.00769
5832.31536	0.00770
5830.38668	0.00771
5828.45800	0.00773
5826.52933	0.00776
5824.60065	0.00779
5822.67198	0.00780
5820.74330	0.00781
5818.81463	0.00782
5816.88595	0.00782
5814.95727	0.00784
5813.02860	0.00786
5811.09992	0.00789
5809.17125	0.00790
5807.24257	0.00790
5805.31390	0.00791
5803.38522	0.00794
5801.45654	0.00797
5799.52787	0.00798
5797.59919	0.00799
5795.67052	0.00800
5793.74184	0.00801
5791.81317	0.00802
5789.88449	0.00803
5787.95581	0.00805
5786.02714	0.00808
5784.09846	0.00809
5782.16979	0.00810
5780.24111	0.00812
5778.31244	0.00814
5776.38376	0.00816
5774.45508	0.00818
5772.52641	0.00820
5770.59773	0.00822
5768.66906	0.00825
5766.74038	0.00827
5764.81171	0.00829
5762.88303	0.00829
5760.95435	0.00828
5759.02568	0.00828
5757.09700	0.00830
5755.16833	0.00833
5753.23965	0.00837
5751.31098	0.00839
5749.38230	0.00839
5747.45362	0.00839
5745.52495	0.00841
5743.59627	0.00844
5741.66760	0.00847
5739.73892	0.00851
5737.81025	0.00854
5735.88157	0.00856
5733.95289	0.00855
5732.02422	0.00854
5730.09554	0.00855
5728.16687	0.00858
5726.23819	0.00861
5724.30952	0.00863
5722.38084	0.00865
5720.45216	0.00866
5718.52349	0.00866
5716.59481	0.00868
5714.66614	0.00869
5712.73746	0.00870
5710.80879	0.00872
5708.88011	0.00876
5706.95143	0.00881
5705.02276	0.00884
5703.09408	0.00885
5701.16541	0.00885
5699.23673	0.00886
5697.30806	0.00887
5695.37938	0.00887
5693.45070	0.00888
5691.52203	0.00891
5689.59335	0.00895
5687.66468	0.00898
5685.73600	0.00899
5683.80733	0.00899
5681.87865	0.00901
5679.94997	0.00903
5678.02130	0.00903
5676.09262	0.00902
5674.16395	0.00903
5672.23527	0.00906
5670.30660	0.00909
5668.37792	0.00911
5666.44924	0.00912
5664.52057	0.00914
5662.59189	0.00916
5660.66322	0.00919
5658.73454	0.00921
5656.80587	0.00923
5654.87719	0.00925
5652.94851	0.00926
5651.01984	0.00928
5649.09116	0.00930
5647.16249	0.00932
5645.23381	0.00934
5643.30514	0.00935
5641.37646	0.00937
5639.44778	0.00939
5637.51911	0.00942
5635.59043	0.00943
5633.66176	0.00944
5631.73308	0.00945
5629.80441	0.00947
5627.87573	0.00948
5625.94705	0.00951
5624.01838	0.00955
5622.08970	0.00957
5620.16103	0.00958
5618.23235	0.00959
5616.30368	0.00960
5614.37500	0.00961
5612.44632	0.00963
5610.51765	0.00966
5608.58897	0.00968
5606.66030	0.00971
5604.73162	0.00975
5602.80295	0.00976
5600.87427	0.00977
5598.94559	0.00979
5597.01692	0.00983
5595.08824	0.00986
5593.15957	0.00987
5591.23089	0.00987
5589.30222	0.00987
5587.37354	0.00989
5585.44486	0.00992
5583.51619	0.00994
5581.58751	0.00996
5579.65884	0.00999
5577.73016	0.01001
5575.80149	0.01002
5573.87281	0.01003
5571.94413	0.01003
5570.01546	0.01005
5568.08678	0.01006
5566.15811	0.01009
5564.22943	0.01011
5562.30076	0.01014
5560.37208	0.01016
5558.44340	0.01020
5556.51473	0.01024
5554.58605	0.01027
5552.65738	0.01027
5550.72870	0.01028
5548.80003	0.01031
5546.87135	0.01032
5544.94267	0.01033
5543.01400	0.01035
5541.08532	0.01038
5539.15665	0.01039
5537.22797	0.01040
5535.29930	0.01042
5533.37062	0.01045
5531.44194	0.01047
5529.51327	0.01048
5527.58459	0.01050
5525.65592	0.01051
5523.72724	0.01053
5521.79857	0.01056
5519.86989	0.01060
5517.94121	0.01062
5516.01254	0.01063
5514.08386	0.01066
5512.15519	0.01069
5510.22651	0.01070
5508.29784	0.01070
5506.36916	0.01070
5504.44048	0.01070
5502.51181	0.01072
5500.58313	0.01075
5498.65446	0.01079
5496.72578	0.01082
5494.79711	0.01083
5492.86843	0.01084
5490.93975	0.01087
5489.01108	0.01089
5487.08240	0.01091
5485.15373	0.01095
5483.22505	0.01099
5481.29638	0.01101
5479.36770	0.01101
5477.43902	0.01100
5475.51035	0.01101
5473.58167	0.01104
5471.65300	0.01108
5469.72432	0.01112
5467.79565	0.01115
5465.86697	0.01116
5463.93829	0.01116
5462.00962	0.01115
5460.08094	0.01117
5458.15227	0.01120
5456.22359	0.01123
5454.29492	0.01126
5452.36624	0.01130
5450.43756	0.01134
5448.50889	0.01136
5446.58021	0.01137
5444.65154	0.01139
5442.72286	0.01140
5440.79419	0.01141
5438.86551	0.01142
5436.93683	0.01144
5435.00816	0.01145
5433.07948	0.01147
5431.15081	0.01149
5429.22213	0.01152
5427.29346	0.01156
5425.36478	0.01160
5423.43610	0.01164
5421.50743	0.01166
5419.57875	0.01166
5417.65008	0.01166
5415.72140	0.01167
5413.79273	0.01169
5411.86405	0.01171
5409.93537	0.01175
5408.00670	0.01180
5406.07802	0.01183
5404.14935	0.01185
5402.22067	0.01186
5400.29200	0.01186
5398.36332	0.01187
5396.43464	0.01188
5394.50597	0.01190
5392.57729	0.01195
5390.64862	0.01199
5388.71994	0.01201
5386.79127	0.01202
5384.86259	0.01202
5382.93391	0.01205
5381.00524	0.01209
5379.07656	0.01212
5377.14789	0.01213
5375.21921	0.01215
5373.29054	0.01218
5371.36186	0.01222
5369.43318	0.01224
5367.50451	0.01225
5365.57583	0.01228
5363.64716	0.01229
5361.71848	0.01230
5359.78981	0.01232
5357.86113	0.01234
5355.93245	0.01236
5354.00378	0.01239
5352.07510	0.01242
5350.14643	0.01243
5348.21775	0.01242
5346.28908	0.01242
5344.36040	0.01245
5342.43172	0.01247
5340.50305	0.01248
5338.57437	0.01250
5336.64570	0.01257
5334.71702	0.01264
5332.78835	0.01266
5330.85967	0.01266
5328.93099	0.01267
5327.00232	0.01268
5325.07364	0.01271
5323.14497	0.01275
5321.21629	0.01277
5319.28762	0.01279
5317.35894	0.01281
5315.43026	0.01284
5313.50159	0.01288
5311.57291	0.01290
5309.64424	0.01288
5307.71556	0.01288
5305.78689	0.01292
5303.85821	0.01297
5301.92953	0.01300
5300.00086	0.01302
5298.07218	0.01305
5296.14351	0.01307
5294.21483	0.01309
5292.28616	0.01312
5290.35748	0.01314
5288.42880	0.01316
5286.50013	0.01317
5284.57145	0.01319
5282.64278	0.01322
5280.71410	0.01324
5278.78543	0.01328
5276.85675	0.01331
5274.92807	0.01333
5272.99940	0.01334
5271.07072	0.01336
5269.14205	0.01341
5267.21337	0.01344
5265.28470	0.01345
5263.35602	0.01347
5261.42734	0.01349
5259.49867	0.01351
5257.56999	0.01352
5255.64132	0.01353
5253.71264	0.01355
5251.78397	0.01357
5249.85529	0.01358
5247.92661	0.01362
5245.99794	0.01366
5244.06926	0.01370
5242.14059	0.01373
5240.21191	0.01376
5238.28324	0.01377
5236.35456	0.01378
5234.42588	0.01380
5232.49721	0.01381
5230.56853	0.01382
5228.63986	0.01385
5226.71118	0.01388
5224.78251	0.01391
5222.85383	0.01393
5220.92515	0.01395
5218.99648	0.01400
5217.06780	0.01403
5215.13913	0.01404
5213.21045	0.01404
5211.28178	0.01406
5209.35310	0.01408
5207.42442	0.01412
5205.49575	0.01416
5203.56707	0.01420
5201.63840	0.01423
5199.70972	0.01424
5197.78105	0.01426
5195.85237	0.01428
5193.92369	0.01432
5191.99502	0.01435
5190.06634	0.01438
5188.13767	0.01440
5186.20899	0.01444
5184.28032	0.01447
5182.35164	0.01448
5180.42296	0.01447
5178.49429	0.01448
5176.56561	0.01452
5174.63694	0.01456
5172.70826	0.01458
5170.77959	0.01461
5168.85091	0.01464
5166.92223	0.01467
5164.99356	0.01468
5163.06488	0.01469
5161.13621	0.01472
5159.20753	0.01475
5157.27886	0.01479
5155.35018	0.01482
5153.42150	0.01484
5151.49283	0.01485
5149.56415	0.01488
5147.63548	0.01491
5145.70680	0.01494
5143.77813	0.01497
5141.84945	0.01500
5139.92077	0.01503
5137.99210	0.01505
5136.06342	0.01507
5134.13475	0.01510
5132.20607	0.01514
5130.27740	0.01516
5128.34872	0.01517
5126.42004	0.01517
5124.49137	0.01518
5122.56269	0.01522
5120.63402	0.01525
5118.70534	0.01528
5116.77667	0.01530
5114.84799	0.01531
5112.91931	0.01533
5110.99064	0.01538
5109.06196	0.01542
5107.13329	0.01543
5105.20461	0.01544
5103.27594	0.01547
5101.34726	0.01552
5099.41858	0.01555
5097.48991	0.01557
5095.56123	0.01559
5093.63256	0.01561
5091.70388	0.01562
5089.77521	0.01565
5087.84653	0.01570
5085.91785	0.01574
5083.98918	0.01575
5082.06050	0.01575
5080.13183	0.01577
5078.20315	0.01582
5076.27448	0.01587
5074.34580	0.01589
5072.41712	0.01590
5070.48845	0.01594
5068.55977	0.01597
5066.63110	0.01598
5064.70242	0.01598
5062.77375	0.01600
5060.84507	0.01602
5058.91639	0.01605
5056.98772	0.01609
5055.05904	0.01611
5053.13037	0.01613
5051.20169	0.01616
5049.27302	0.01622
5047.34434	0.01627
5045.41566	0.01629
5043.48699	0.01630
5041.55831	0.01633
5039.62964	0.01634
5037.70096	0.01635
5035.77229	0.01636
5033.84361	0.01639
5031.91493	0.01643
5029.98626	0.01647
5028.05758	0.01651
5026.12891	0.01654
5024.20023	0.01657
5022.27156	0.01660
5020.34288	0.01665
5018.41420	0.01667
5016.48553	0.01666
5014.55685	0.01667
5012.62818	0.01672
5010.69950	0.01677
5008.77083	0.01679
5006.84215	0.01681
5004.91347	0.01683
5002.98480	0.01686
5001.05612	0.01689
4999.12745	0.01691
4997.19877	0.01695
4995.27010	0.01699
4993.34142	0.01702
4991.41274	0.01703
4989.48407	0.01705
4987.55539	0.01707
4985.62672	0.01710
4983.69804	0.01713
4981.76937	0.01715
4979.84069	0.01716
4977.91201	0.01720
4975.98334	0.01724
4974.05466	0.01727
4972.12599	0.01729
4970.19731	0.01731
4968.26864	0.01734
4966.33996	0.01736
4964.41128	0.01740
4962.48261	0.01744
4960.55393	0.01747
4958.62526	0.01748
4956.69658	0.01749
4954.76791	0.01751
4952.83923	0.01753
4950.91055	0.01757
4948.98188	0.01760
4947.05320	0.01764
4945.12453	0.01768
4943.19585	0.01773
4941.26718	0.01776
4939.33850	0.01778
4937.40982	0.01779
4935.48115	0.01780
4933.55247	0.01783
4931.62380	0.01786
4929.69512	0.01788
4927.76645	0.01792
4925.83777	0.01795
4923.90909	0.01799
4921.98042	0.01803
4920.05174	0.01805
4918.12307	0.01808
4916.19439	0.01812
4914.26572	0.01815
4912.33704	0.01817
4910.40836	0.01818
4908.47969	0.01821
4906.55101	0.01824
4904.62234	0.01826
4902.69366	0.01827
4900.76499	0.01830
4898.83631	0.01834
4896.90763	0.01839
4894.97896	0.01839
4893.05028	0.01839
4891.12161	0.01842
4889.19293	0.01848
4887.26426	0.01853
4885.33558	0.01856
4883.40690	0.01858
4881.47823	0.01860
4879.54955	0.01862
4877.62088	0.01865
4875.69220	0.01868
4873.76353	0.01872
4871.83485	0.01876
4869.90617	0.01879
4867.97750	0.01881
4866.04882	0.01884
4864.12015	0.01888
4862.19147	0.01892
4860.26280	0.01896
4858.33412	0.01898
4856.40544	0.01899
4854.47677	0.01901
4852.54809	0.01904
4850.61942	0.01907
4848.69074	0.01909
4846.76207	0.01912
4844.83339	0.01915
4842.90471	0.01919
4840.97604	0.01922
4839.04736	0.01926
4837.11869	0.01930
4835.19001	0.01934
4833.26134	0.01937
4831.33266	0.01941
4829.40398	0.01944
4827.47531	0.01946
4825.54663	0.01946
4823.61796	0.01946
4821.68928	0.01949
4819.76061	0.01954
4817.83193	0.01959
4815.90325	0.01963
4813.97458	0.01965
4812.04590	0.01966
4810.11723	0.01968
4808.18855	0.01971
4806.25988	0.01976
4804.33120	0.01980
4802.40252	0.01983
4800.47385	0.01987
4798.54517	0.01993
4796.61650	0.01998
4794.68782	0.02001
4792.75915	0.02003
4790.83047	0.02005
4788.90179	0.02006
4786.97312	0.02008
4785.04444	0.02013
4783.11577	0.02019
4781.18709	0.02023
4779.25842	0.02025
4777.32974	0.02026
4775.40106	0.02028
4773.47239	0.02030
4771.54371	0.02032
4769.61504	0.02037
4767.68636	0.02043
4765.75769	0.02045
4763.82901	0.02045
4761.90033	0.02049
4759.97166	0.02054
4758.04298	0.02058
4756.11431	0.02059
4754.18563	0.02061
4752.25696	0.02065
4750.32828	0.02069
4748.39960	0.02072
4746.47093	0.02074
4744.54225	0.02076
4742.61358	0.02081
4740.68490	0.02087
4738.75623	0.02090
4736.82755	0.02093
4734.89887	0.02097
4732.97020	0.02101
4731.04152	0.02106
4729.11285	0.02109
4727.18417	0.02111
4725.25550	0.02111
4723.32682	0.02114
4721.39814	0.02119
4719.46947	0.02125
4717.54079	0.02129
4715.61212	0.02130
4713.68344	0.02131
4711.75477	0.02134
4709.82609	0.02140
4707.89741	0.02145
4705.96874	0.02148
4704.04006	0.02150
4702.11139	0.02154
4700.18271	0.02159
4698.25404	0.02162
4696.32536	0.02165
4694.39668	0.02169
4692.46801	0.02172
4690.53933	0.02175
4688.61066	0.02178
4686.68198	0.02184
4684.75331	0.02189
4682.82463	0.02191
4680.89595	0.02195
4678.96728	0.02200
4677.03860	0.02203
4675.10993	0.02203
4673.18125	0.02205
4671.25258	0.02209
4669.32390	0.02216
4667.39522	0.02221
4665.46655	0.02224
4663.53787	0.02225
4661.60920	0.02228
4659.68052	0.02232
4657.75185	0.02235
4655.82317	0.02237
4653.89449	0.02241
4651.96582	0.02246
4650.03714	0.02250
4648.10847	0.02253
4646.17979	0.02257
4644.25112	0.02262
4642.32244	0.02267
4640.39376	0.02270
4638.46509	0.02272
4636.53641	0.02277
4634.60774	0.02282
4632.67906	0.02285
4630.75039	0.02288
4628.82171	0.02292
4626.89303	0.02295
4624.96436	0.02298
4623.03568	0.02302
4621.10701	0.02305
4619.17833	0.02308
4617.24966	0.02312
4615.32098	0.02315
4613.39230	0.02316
4611.46363	0.02318
4609.53495	0.02323
4607.60628	0.02330
4605.67760	0.02337
4603.74893	0.02343
4601.82025	0.02346
4599.89157	0.02347
4597.96290	0.02348
4596.03422	0.02351
4594.10555	0.02356
4592.17687	0.02362
4590.24820	0.02366
4588.31952	0.02370
4586.39084	0.02374
4584.46217	0.02378
4582.53349	0.02381
4580.60482	0.02384
4578.67614	0.02388
4576.74747	0.02393
4574.81879	0.02397
4572.89011	0.02402
4570.96144	0.02405
4569.03276	0.02410
4567.10409	0.02416
4565.17541	0.02420
4563.24674	0.02421
4561.31806	0.02423
4559.38938	0.02428
4557.46071	0.02433
4555.53203	0.02434
4553.60336	0.02436
4551.67468	0.02441
4549.74601	0.02448
4547.81733	0.02455
4545.88865	0.02459
4543.95998	0.02463
4542.03130	0.02467
4540.10263	0.02471
4538.17395	0.02476
4536.24528	0.02481
4534.31660	0.02485
4532.38792	0.02490
4530.45925	0.02492
4528.53057	0.02493
4526.60190	0.02495
4524.67322	0.02499
4522.74455	0.02505
4520.81587	0.02510
4518.88719	0.02514
4516.95852	0.02518
4515.02984	0.02523
4513.10117	0.02527
4511.17249	0.02531
4509.24382	0.02535
4507.31514	0.02538
4505.38646	0.02541
4503.45779	0.02544
4501.52911	0.02548
4499.60044	0.02554
4497.67176	0.02559
4495.74309	0.02565
4493.81441	0.02571
4491.88573	0.02576
4489.95706	0.02581
4488.02838	0.02584
4486.09971	0.02588
4484.17103	0.02593
4482.24236	0.02597
4480.31368	0.02601
4478.38500	0.02604
4476.45633	0.02607
4474.52765	0.02611
4472.59898	0.02616
4470.67030	0.02622
4468.74163	0.02627
4466.81295	0.02632
4464.88427	0.02636
4462.95560	0.02641
4461.02692	0.02645
4459.09825	0.02650
4457.16957	0.02655
4455.24090	0.02658
4453.31222	0.02660
4451.38354	0.02665
4449.45487	0.02671
4447.52619	0.02676
4445.59752	0.02682
4443.66884	0.02689
4441.74017	0.02693
4439.81149	0.02695
4437.88281	0.02698
4435.95414	0.02704
4434.02546	0.02710
4432.09679	0.02714
4430.16811	0.02718
4428.23944	0.02724
4426.31076	0.02731
4424.38208	0.02735
4422.45341	0.02737
4420.52473	0.02739
4418.59606	0.02745
4416.66738	0.02752
4414.73871	0.02759
4412.81003	0.02765
4410.88135	0.02771
4408.95268	0.02776
4407.02400	0.02780
4405.09533	0.02783
4403.16665	0.02786
4401.23798	0.02791
4399.30930	0.02796
4397.38062	0.02800
4395.45195	0.02805
4393.52327	0.02812
4391.59460	0.02817
4389.66592	0.02820
4387.73725	0.02823
4385.80857	0.02828
4383.87989	0.02832
4381.95122	0.02837
4380.02254	0.02843
4378.09387	0.02850
4376.16519	0.02855
4374.23652	0.02860
4372.30784	0.02867
4370.37916	0.02871
4368.45049	0.02875
4366.52181	0.02880
4364.59314	0.02888
4362.66446	0.02894
4360.73579	0.02897
4358.80711	0.02900
4356.87843	0.02903
4354.94976	0.02907
4353.02108	0.02913
4351.09241	0.02922
4349.16373	0.02931
4347.23506	0.02937
4345.30638	0.02940
4343.37770	0.02944
4341.44903	0.02949
4339.52035	0.02952
4337.59168	0.02954
4335.66300	0.02959
4333.73433	0.02965
4331.80565	0.02971
4329.87697	0.02976
4327.94830	0.02981
4326.01962	0.02987
4324.09095	0.02994
4322.16227	0.03002
4320.23360	0.03008
4318.30492	0.03013
4316.37624	0.03016
4314.44757	0.03020
4312.51889	0.03026
4310.59022	0.03032
4308.66154	0.03038
4306.73287	0.03044
4304.80419	0.03048
4302.87551	0.03051
4300.94684	0.03054
4299.01816	0.03059
4297.08949	0.03067
4295.16081	0.03076
4293.23214	0.03082
4291.30346	0.03086
4289.37478	0.03092
4287.44611	0.03100
4285.51743	0.03105
4283.58876	0.03109
4281.66008	0.03117
4279.73141	0.03126
4277.80273	0.03133
4275.87405	0.03138
4273.94538	0.03144
4272.01670	0.03149
4270.08803	0.03151
4268.15935	0.03155
4266.23068	0.03162
4264.30200	0.03169
4262.37332	0.03174
4260.44465	0.03179
4258.51597	0.03184
4256.58730	0.03190
4254.65862	0.03197
4252.72995	0.03204
4250.80127	0.03210
4248.87259	0.03215
4246.94392	0.03221
4245.01524	0.03227
4243.08657	0.03233
4241.15789	0.03239
4239.22922	0.03245
4237.30054	0.03252
4235.37186	0.03259
4233.44319	0.03265
4231.51451	0.03269
4229.58584	0.03273
4227.65716	0.03278
4225.72849	0.03283
4223.79981	0.03290
4221.87113	0.03298
4219.94246	0.03306
4218.01378	0.03312
4216.08511	0.03318
4214.15643	0.03324
4212.22776	0.03331
4210.29908	0.03337
4208.37040	0.03342
4206.44173	0.03348
4204.51305	0.03356
4202.58438	0.03363
4200.65570	0.03370
4198.72703	0.03377
4196.79835	0.03380
4194.86968	0.03381
4192.94100	0.03386
4191.01232	0.03395
4189.08365	0.03404
4187.15497	0.03412
4185.22630	0.03418
4183.29762	0.03424
4181.36895	0.03432
4179.44027	0.03439
4177.51159	0.03443
4175.58292	0.03449
4173.65424	0.03455
4171.72557	0.03460
4169.79689	0.03465
4167.86822	0.03473
4165.93954	0.03481
4164.01086	0.03487
4162.08219	0.03491
4160.15351	0.03494
4158.22484	0.03500
4156.29616	0.03509
4154.36749	0.03519
4152.43881	0.03528
4150.51013	0.03534
4148.58146	0.03538
4146.65278	0.03543
4144.72411	0.03550
4142.79543	0.03558
4140.86676	0.03563
4138.93808	0.03570
4137.00940	0.03580
4135.08073	0.03588
4133.15205	0.03594
4131.22338	0.03600
4129.29470	0.03608
4127.36603	0.03614
4125.43735	0.03620
4123.50867	0.03626
4121.58000	0.03633
4119.65132	0.03641
4117.72265	0.03648
4115.79397	0.03655
4113.86530	0.03662
4111.93662	0.03670
4110.00794	0.03676
4108.07927	0.03683
4106.15059	0.03690
4104.22192	0.03698
4102.29324	0.03705
4100.36457	0.03714
4098.43589	0.03722
4096.50721	0.03728
4094.57854	0.03733
4092.64986	0.03739
4090.72119	0.03746
4088.79251	0.03750
4086.86384	0.03753
4084.93516	0.03761
4083.00648	0.03771
4081.07781	0.03781
4079.14913	0.03789
4077.22046	0.03797
4075.29178	0.03803
4073.36311	0.03808
4071.43443	0.03815
4069.50575	0.03824
4067.57708	0.03832
4065.64840	0.03840
4063.71973	0.03848
4061.79105	0.03857
4059.86238	0.03865
4057.93370	0.03873
4056.00502	0.03879
4054.07635	0.03883
4052.14767	0.03890
4050.21900	0.03898
4048.29032	0.03908
4046.36165	0.03916
4044.43297	0.03921
4042.50429	0.03924
4040.57562	0.03931
4038.64694	0.03941
4036.71827	0.03952
4034.78959	0.03960
4032.86092	0.03966
4030.93224	0.03970
4029.00356	0.03976
4027.07489	0.03983
4025.14621	0.03990
4023.21754	0.03999
4021.28886	0.04009
4019.36019	0.04018
4017.43151	0.04026
4015.50283	0.04035
4013.57416	0.04041
4011.64548	0.04044
4009.71681	0.04050
4007.78813	0.04058
4005.85946	0.04069
4003.93078	0.04078
4002.00210	0.04084
4000.07343	0.04092
3998.14475	0.04098
3996.21608	0.04104
3994.28740	0.04115
3992.35873	0.04127
3990.43005	0.04136
3988.50137	0.04142
3986.57270	0.04147
3984.64402	0.04156
3982.71535	0.04166
3980.78667	0.04175
3978.85800	0.04182
3976.92932	0.04187
3975.00064	0.04194
3973.07197	0.04202
3971.14329	0.04211
3969.21462	0.04220
3967.28594	0.04228
3965.35727	0.04235
3963.42859	0.04242
3961.49991	0.04248
3959.57124	0.04256
3957.64256	0.04264
3955.71389	0.04270
3953.78521	0.04276
3951.85654	0.04282
3949.92786	0.04290
3947.99918	0.04299
3946.07051	0.04307
3944.14183	0.04317
3942.21316	0.04328
3940.28448	0.04338
3938.35581	0.04345
3936.42713	0.04350
3934.49845	0.04354
3932.56978	0.04360
3930.64110	0.04372
3928.71243	0.04385
3926.78375	0.04393
3924.85508	0.04399
3922.92640	0.04407
3920.99772	0.04414
3919.06905	0.04418
3917.14037	0.04427
3915.21170	0.04442
3913.28302	0.04454
3911.35435	0.04460
3909.42567	0.04466
3907.49699	0.04468
3905.56832	0.04467
3903.63964	0.04468
3901.71097	0.04473
3899.78229	0.04485
3897.85362	0.04506
3895.92494	0.04526
3893.99626	0.04531
3892.06759	0.04531
3890.13891	0.04538
3888.21024	0.04548
3886.28156	0.04553
3884.35289	0.04560
3882.42421	0.04567
3880.49553	0.04574
3878.56686	0.04592
3876.63818	0.04608
3874.70951	0.04614
3872.78083	0.04614
3870.85216	0.04613
3868.92348	0.04620
3866.99480	0.04633
3865.06613	0.04644
3863.13745	0.04655
3861.20878	0.04668
3859.28010	0.04676
3857.35143	0.04663
3855.42275	0.04635
3853.49407	0.04634
3851.56540	0.04677
3849.63672	0.04723
3847.70805	0.04745
3845.77937	0.04750
3843.85070	0.04749
3841.92202	0.04751
3839.99334	0.04755
3838.06467	0.04762
3836.13599	0.04771
3834.20732	0.04781
3832.27864	0.04794
3830.34997	0.04812
3828.42129	0.04829
3826.49261	0.04839
3824.56394	0.04842
3822.63526	0.04838
3820.70659	0.04840
3818.77791	0.04852
3816.84924	0.04861
3814.92056	0.04877
3812.99188	0.04902
3811.06321	0.04917
3809.13453	0.04921
3807.20586	0.04924
3805.27718	0.04930
3803.34851	0.04928
3801.41983	0.04929
3799.49115	0.04947
3797.56248	0.04969
3795.63380	0.04984
3793.70513	0.04998
3791.77645	0.05010
3789.84778	0.05018
3787.91910	0.05026
3785.99042	0.05034
3784.06175	0.05040
3782.13307	0.05045
3780.20440	0.05053
3778.27572	0.05068
3776.34705	0.05086
3774.41837	0.05095
3772.48969	0.05098
3770.56102	0.05103
3768.63234	0.05112
3766.70367	0.05124
3764.77499	0.05134
3762.84632	0.05141
3760.91764	0.05144
3758.98896	0.05148
3757.06029	0.05155
3755.13161	0.05157
3753.20294	0.05150
3751.27426	0.05143
3749.34559	0.05152
3747.41691	0.05162
3745.48823	0.05162
3743.55956	0.05181
3741.63088	0.05217
3739.70221	0.05237
3737.77353	0.05237
3735.84486	0.05239
3733.91618	0.05254
3731.98750	0.05277
3730.05883	0.05294
3728.13015	0.05302
3726.20148	0.05308
3724.27280	0.05317
3722.34413	0.05327
3720.41545	0.05341
3718.48677	0.05357
3716.55810	0.05370
3714.62942	0.05371
3712.70075	0.05367
3710.77207	0.05376
3708.84340	0.05399
3706.91472	0.05419
3704.98604	0.05431
3703.05737	0.05439
3701.12869	0.05446
3699.20002	0.05456
3697.27134	0.05464
3695.34267	0.05472
3693.41399	0.05474
3691.48531	0.05469
3689.55664	0.05466
3687.62796	0.05482
3685.69929	0.05508
3683.77061	0.05525
3681.84194	0.05533
3679.91326	0.05539
3677.98458	0.05539
3676.05591	0.05539
3674.12723	0.05546
3672.19856	0.05555
3670.26988	0.05565
3668.34121	0.05587
3666.41253	0.05610
3664.48385	0.05624
3662.55518	0.05633
3660.62650	0.05642
3658.69783	0.05645
3656.76915	0.05647
3654.84048	0.05651
3652.91180	0.05647
3650.98312	0.05634
3649.05445	0.05628
3647.12577	0.05642
3645.19710	0.05673
3643.26842	0.05703
3641.33975	0.05721
3639.41107	0.05730
3637.48239	0.05737
3635.55372	0.05742
3633.62504	0.05744
3631.69637	0.05735
3629.76769	0.05723
3627.83902	0.05735
3625.91034	0.05765
3623.98166	0.05785
3622.05299	0.05790
3620.12431	0.05790
3618.19564	0.05794
3616.26696	0.05804
3614.33829	0.05811
3612.40961	0.05812
3610.48093	0.05814
3608.55226	0.05824
3606.62358	0.05844
3604.69491	0.05860
3602.76623	0.05868
3600.83756	0.05873
3598.90888	0.05881
3596.98020	0.05889
3595.05153	0.05894
3593.12285	0.05903
3591.19418	0.05909
3589.26550	0.05905
3587.33683	0.05905
3585.40815	0.05920
3583.47947	0.05939
3581.55080	0.05953
3579.62212	0.05965
3577.69345	0.05978
3575.76477	0.05989
3573.83610	0.05995
3571.90742	0.05995
3569.97874	0.05989
3568.05007	0.05986
3566.12139	0.05997
3564.19272	0.06016
3562.26404	0.06031
3560.33537	0.06042
3558.40669	0.06053
3556.47801	0.06062
3554.54934	0.06068
3552.62066	0.06073
3550.69199	0.06078
3548.76331	0.06081
3546.83464	0.06082
3544.90596	0.06090
3542.97728	0.06104
3541.04861	0.06117
3539.11993	0.06124
3537.19126	0.06128
3535.26258	0.06132
3533.33391	0.06138
3531.40523	0.06141
3529.47655	0.06143
3527.54788	0.06147
3525.61920	0.06154
3523.69053	0.06160
3521.76185	0.06165
3519.83318	0.06169
3517.90450	0.06172
3515.97582	0.06175
3514.04715	0.06179
3512.11847	0.06185
3510.18980	0.06190
3508.26112	0.06195
3506.33245	0.06198
3504.40377	0.06199
3502.47509	0.06200
3500.54642	0.06202
3498.61774	0.06203
3496.68907	0.06206
3494.76039	0.06211
3492.83172	0.06218
3490.90304	0.06225
3488.97436	0.06229
3487.04569	0.06229
3485.11701	0.06231
3483.18834	0.06235
3481.25966	0.06241
3479.33099	0.06250
3477.40231	0.06257
3475.47363	0.06262
3473.54496	0.06267
3471.61628	0.06275
3469.68761	0.06286
3467.75893	0.06298
3465.83026	0.06306
3463.90158	0.06312
3461.97290	0.06320
3460.04423	0.06335
3458.11555	0.06351
3456.18688	0.06365
3454.25820	0.06376
3452.32953	0.06386
3450.40085	0.06392
3448.47217	0.06397
3446.54350	0.06404
3444.61482	0.06415
3442.68615	0.06429
3440.75747	0.06441
3438.82880	0.06452
3436.90012	0.06466
3434.97144	0.06486
3433.04277	0.06508
3431.11409	0.06529
3429.18542	0.06549
3427.25674	0.06571
3425.32807	0.06591
3423.39939	0.06610
3421.47071	0.06627
3419.54204	0.06645
3417.61336	0.06665
3415.68469	0.06683
3413.75601	0.06695
3411.82734	0.06707
3409.89866	0.06723
3407.96998	0.06739
3406.04131	0.06753
3404.11263	0.06765
3402.18396	0.06777
3400.25528	0.06791
3398.32661	0.06807
3396.39793	0.06822
3394.46925	0.06837
3392.54058	0.06851
3390.61190	0.06865
3388.68323	0.06880
3386.75455	0.06896
3384.82588	0.06909
3382.89720	0.06921
3380.96852	0.06934
3379.03985	0.06949
3377.11117	0.06964
3375.18250	0.06976
3373.25382	0.06986
3371.32515	0.06995
3369.39647	0.07007
3367.46779	0.07023
3365.53912	0.07038
3363.61044	0.07049
3361.68177	0.07057
3359.75309	0.07067
3357.82442	0.07079
3355.89574	0.07092
3353.96706	0.07106
3352.03839	0.07121
3350.10971	0.07135
3348.18104	0.07145
3346.25236	0.07155
3344.32369	0.07170
3342.39501	0.07185
3340.46633	0.07197
3338.53766	0.07209
3336.60898	0.07221
3334.68031	0.07233
3332.75163	0.07246
3330.82296	0.07259
3328.89428	0.07273
3326.96560	0.07285
3325.03693	0.07296
3323.10825	0.07309
3321.17958	0.07324
3319.25090	0.07339
3317.32223	0.07351
3315.39355	0.07363
3313.46487	0.07377
3311.53620	0.07390
3309.60752	0.07402
3307.67885	0.07415
3305.75017	0.07427
3303.82150	0.07440
3301.89282	0.07453
3299.96414	0.07466
3298.03547	0.07480
3296.10679	0.07495
3294.17812	0.07506
3292.24944	0.07514
3290.32077	0.07525
3288.39209	0.07541
3286.46341	0.07558
3284.53474	0.07575
3282.60606	0.07593
3280.67739	0.07609
3278.74871	0.07621
3276.82004	0.07631
3274.89136	0.07645
3272.96268	0.07658
3271.03401	0.07669
3269.10533	0.07681
3267.17666	0.07696
3265.24798	0.07711
3263.31931	0.07727
3261.39063	0.07743
3259.46195	0.07758
3257.53328	0.07771
3255.60460	0.07784
3253.67593	0.07798
3251.74725	0.07810
3249.81858	0.07823
3247.88990	0.07838
3245.96122	0.07852
3244.03255	0.07864
3242.10387	0.07877
3240.17520	0.07891
3238.24652	0.07906
3236.31785	0.07921
3234.38917	0.07935
3232.46049	0.07950
3230.53182	0.07963
3228.60314	0.07976
3226.67447	0.07989
3224.74579	0.08004
3222.81712	0.08020
3220.88844	0.08037
3218.95976	0.08050
3217.03109	0.08062
3215.10241	0.08075
3213.17374	0.08089
3211.24506	0.08102
3209.31639	0.08114
3207.38771	0.08129
3205.45903	0.08146
3203.53036	0.08162
3201.60168	0.08174
3199.67301	0.08187
3197.74433	0.08205
3195.81566	0.08222
3193.88698	0.08233
3191.95830	0.08243
3190.02963	0.08259
3188.10095	0.08279
3186.17228	0.08296
3184.24360	0.08311
3182.31493	0.08328
3180.38625	0.08344
3178.45757	0.08356
3176.52890	0.08366
3174.60022	0.08379
3172.67155	0.08396
3170.74287	0.08412
3168.81420	0.08429
3166.88552	0.08445
3164.95684	0.08457
3163.02817	0.08469
3161.09949	0.08482
3159.17082	0.08497
3157.24214	0.08510
3155.31347	0.08523
3153.38479	0.08535
3151.45611	0.08550
3149.52744	0.08567
3147.59876	0.08584
3145.67009	0.08600
3143.74141	0.08614
3141.81274	0.08627
3139.88406	0.08642
3137.95538	0.08655
3136.02671	0.08666
3134.09803	0.08679
3132.16936	0.08692
3130.24068	0.08707
3128.31201	0.08724
3126.38333	0.08739
3124.45465	0.08752
3122.52598	0.08765
3120.59730	0.08778
3118.66863	0.08793
3116.73995	0.08809
3114.81128	0.08824
3112.88260	0.08839
3110.95392	0.08854
3109.02525	0.08867
3107.09657	0.08879
3105.16790	0.08894
3103.23922	0.08909
3101.31055	0.08925
3099.38187	0.08940
3097.45319	0.08953
3095.52452	0.08965
3093.59584	0.08981
3091.66717	0.08999
3089.73849	0.09014
3087.80982	0.09026
3085.88114	0.09040
3083.95246	0.09056
3082.02379	0.09072
3080.09511	0.09086
3078.16644	0.09098
3076.23776	0.09110
3074.30909	0.09121
3072.38041	0.09135
3070.45173	0.09154
3068.52306	0.09172
3066.59438	0.09184
3064.66571	0.09194
3062.73703	0.09206
3060.80836	0.09222
3058.87968	0.09239
3056.95100	0.09254
3055.02233	0.09267
3053.09365	0.09281
3051.16498	0.09298
3049.23630	0.09313
3047.30763	0.09327
3045.37895	0.09340
3043.45027	0.09353
3041.52160	0.09369
3039.59292	0.09385
3037.66425	0.09400
3035.73557	0.09414
3033.80690	0.09427
3031.87822	0.09438
3029.94954	0.09451
3028.02087	0.09467
3026.09219	0.09486
3024.16352	0.09503
3022.23484	0.09518
3020.30617	0.09532
3018.37749	0.09542
3016.44881	0.09549
3014.52014	0.09561
3012.59146	0.09577
3010.66279	0.09593
3008.73411	0.09607
3006.80544	0.09622
3004.87676	0.09636
3002.94808	0.09650
3001.01941	0.09664
2999.09073	0.09680
2997.16206	0.09697
2995.23338	0.09712
2993.30471	0.09724
2991.37603	0.09735
2989.44735	0.09747
2987.51868	0.09759
2985.59000	0.09769
2983.66133	0.09777
2981.73265	0.09784
2979.80398	0.09789
2977.87530	0.09795
2975.94662	0.09800
2974.01795	0.09801
2972.08927	0.09800
2970.16060	0.09798
2968.23192	0.09797
2966.30325	0.09800
2964.37457	0.09807
2962.44589	0.09817
2960.51722	0.09829
2958.58854	0.09844
2956.65987	0.09863
2954.73119	0.09885
2952.80252	0.09907
2950.87384	0.09925
2948.94516	0.09939
2947.01649	0.09950
2945.08781	0.09959
2943.15914	0.09965
2941.23046	0.09968
2939.30179	0.09970
2937.37311	0.09975
2935.44443	0.09978
2933.51576	0.09977
2931.58708	0.09973
2929.65841	0.09970
2927.72973	0.09967
2925.80106	0.09963
2923.87238	0.09958
2921.94370	0.09958
2920.01503	0.09968
2918.08635	0.09987
2916.15768	0.10019
2914.22900	0.10064
2912.30033	0.10115
2910.37165	0.10160
2908.44297	0.10194
2906.51430	0.10221
2904.58562	0.10249
2902.65695	0.10275
2900.72827	0.10297
2898.79960	0.10317
2896.87092	0.10339
2894.94224	0.10360
2893.01357	0.10379
2891.08489	0.10398
2889.15622	0.10417
2887.22754	0.10432
2885.29887	0.10445
2883.37019	0.10459
2881.44151	0.10476
2879.51284	0.10492
2877.58416	0.10502
2875.65549	0.10512
2873.72681	0.10526
2871.79814	0.10543
2869.86946	0.10560
2867.94078	0.10574
2866.01211	0.10585
2864.08343	0.10594
2862.15476	0.10602
2860.22608	0.10606
2858.29741	0.10607
2856.36873	0.10605
2854.44005	0.10602
2852.51138	0.10599
2850.58270	0.10606
2848.65403	0.10635
2846.72535	0.10684
2844.79668	0.10735
2842.86800	0.10779
2840.93932	0.10813
2839.01065	0.10843
2837.08197	0.10868
2835.15330	0.10889
2833.22462	0.10908
2831.29595	0.10926
2829.36727	0.10940
2827.43859	0.10954
2825.50992	0.10973
2823.58124	0.10993
2821.65257	0.11012
2819.72389	0.11028
2817.79522	0.11044
2815.86654	0.11061
2813.93786	0.11077
2812.00919	0.11092
2810.08051	0.11108
2808.15184	0.11126
2806.22316	0.11144
2804.29449	0.11161
2802.36581	0.11174
2800.43713	0.11187
2798.50846	0.11201
2796.57978	0.11214
2794.65111	0.11227
2792.72243	0.11244
2790.79376	0.11263
2788.86508	0.11281
2786.93640	0.11298
2785.00773	0.11316
2783.07905	0.11332
2781.15038	0.11345
2779.22170	0.11358
2777.29303	0.11374
2775.36435	0.11391
2773.43567	0.11407
2771.50700	0.11422
2769.57832	0.11438
2767.64965	0.11455
2765.72097	0.11472
2763.79230	0.11489
2761.86362	0.11501
2759.93494	0.11512
2758.00627	0.11527
2756.07759	0.11544
2754.14892	0.11561
2752.22024	0.11577
2750.29157	0.11594
2748.36289	0.11611
2746.43421	0.11626
2744.50554	0.11640
2742.57686	0.11655
2740.64819	0.11669
2738.71951	0.11684
2736.79084	0.11697
2734.86216	0.11709
2732.93348	0.11723
2731.00481	0.11737
2729.07613	0.11751
2727.14746	0.11768
2725.21878	0.11787
2723.29011	0.11806
2721.36143	0.11820
2719.43275	0.11832
2717.50408	0.11847
2715.57540	0.11866
2713.64673	0.11883
2711.71805	0.11897
2709.78938	0.11908
2707.86070	0.11922
2705.93202	0.11940
2704.00335	0.11956
2702.07467	0.11966
2700.14600	0.11976
2698.21732	0.11991
2696.28865	0.12010
2694.35997	0.12028
2692.43129	0.12044
2690.50262	0.12060
2688.57394	0.12078
2686.64527	0.12097
2684.71659	0.12113
2682.78792	0.12124
2680.85924	0.12134
2678.93056	0.12145
2677.00189	0.12158
2675.07321	0.12173
2673.14454	0.12187
2671.21586	0.12200
2669.28719	0.12212
2667.35851	0.12227
2665.42983	0.12243
2663.50116	0.12259
2661.57248	0.12276
2659.64381	0.12292
2657.71513	0.12307
2655.78646	0.12324
2653.85778	0.12340
2651.92910	0.12352
2650.00043	0.12363
2648.07175	0.12376
2646.14308	0.12392
2644.21440	0.12412
2642.28573	0.12432
2640.35705	0.12449
2638.42837	0.12463
2636.49970	0.12478
2634.57102	0.12496
2632.64235	0.12515
2630.71367	0.12530
2628.78500	0.12544
2626.85632	0.12560
2624.92764	0.12577
2622.99897	0.12591
2621.07029	0.12606
2619.14162	0.12623
2617.21294	0.12642
2615.28427	0.12658
2613.35559	0.12672
2611.42691	0.12686
2609.49824	0.12705
2607.56956	0.12723
2605.64089	0.12738
2603.71221	0.12749
2601.78354	0.12761
2599.85486	0.12779
2597.92618	0.12801
2595.99751	0.12822
2594.06883	0.12840
2592.14016	0.12860
2590.21148	0.12876
2588.28281	0.12888
2586.35413	0.12898
2584.42545	0.12909
2582.49678	0.12924
2580.56810	0.12943
2578.63943	0.12962
2576.71075	0.12979
2574.78208	0.12996
2572.85340	0.13012
2570.92472	0.13028
2568.99605	0.13041
2567.06737	0.13055
2565.13870	0.13070
2563.21002	0.13087
2561.28135	0.13102
2559.35267	0.13115
2557.42399	0.13126
2555.49532	0.13139
2553.56664	0.13154
2551.63797	0.13167
2549.70929	0.13181
2547.78062	0.13195
2545.85194	0.13212
2543.92326	0.13230
2541.99459	0.13247
2540.06591	0.13265
2538.13724	0.13282
2536.20856	0.13298
2534.27989	0.13310
2532.35121	0.13323
2530.42253	0.13339
2528.49386	0.13356
2526.56518	0.13371
2524.63651	0.13387
2522.70783	0.13402
2520.77916	0.13420
2518.85048	0.13440
2516.92181	0.13458
2514.99313	0.13473
2513.06445	0.13488
2511.13578	0.13503
2509.20710	0.13518
2507.27843	0.13535
2505.34975	0.13555
2503.42108	0.13576
2501.49240	0.13594
2499.56372	0.13610
2497.63505	0.13624
2495.70637	0.13636
2493.77770	0.13652
2491.84902	0.13670
2489.92035	0.13688
2487.99167	0.13707
2486.06299	0.13727
2484.13432	0.13746
2482.20564	0.13762
2480.27697	0.13778
2478.34829	0.13796
2476.41962	0.13813
2474.49094	0.13825
2472.56226	0.13839
2470.63359	0.13860
2468.70491	0.13881
2466.77624	0.13895
2464.84756	0.13908
2462.91889	0.13925
2460.99021	0.13944
2459.06153	0.13962
2457.13286	0.13977
2455.20418	0.13991
2453.27551	0.14007
2451.34683	0.14023
2449.41816	0.14042
2447.48948	0.14061
2445.56080	0.14080
2443.63213	0.14097
2441.70345	0.14113
2439.77478	0.14131
2437.84610	0.14149
2435.91743	0.14165
2433.98875	0.14180
2432.06007	0.14196
2430.13140	0.14213
2428.20272	0.14227
2426.27405	0.14240
2424.34537	0.14257
2422.41670	0.14276
2420.48802	0.14295
2418.55934	0.14311
2416.63067	0.14326
2414.70199	0.14343
2412.77332	0.14360
2410.84464	0.14374
2408.91597	0.14388
2406.98729	0.14406
2405.05861	0.14426
2403.12994	0.14446
2401.20126	0.14465
2399.27259	0.14479
2397.34391	0.14492
2395.41524	0.14505
2393.48656	0.14520
2391.55788	0.14536
2389.62921	0.14554
2387.70053	0.14570
2385.77186	0.14583
2383.84318	0.14597
2381.91451	0.14611
2379.98583	0.14622
2378.05715	0.14631
2376.12848	0.14636
2374.19980	0.14640
2372.27113	0.14643
2370.34245	0.14648
2368.41378	0.14654
2366.48510	0.14661
2364.55642	0.14669
2362.62775	0.14680
2360.69907	0.14694
2358.77040	0.14714
2356.84172	0.14742
2354.91305	0.14774
2352.98437	0.14806
2351.05569	0.14837
2349.12702	0.14860
2347.19834	0.14870
2345.26967	0.14875
2343.34099	0.14883
2341.41232	0.14890
2339.48364	0.14892
2337.55496	0.14897
2335.62629	0.14913
2333.69761	0.14937
2331.76894	0.14963
2329.84026	0.14984
2327.91159	0.15001
2325.98291	0.15021
2324.05423	0.15048
2322.12556	0.15074
2320.19688	0.15096
2318.26821	0.15116
2316.33953	0.15139
2314.41086	0.15162
2312.48218	0.15184
2310.55350	0.15205
2308.62483	0.15228
2306.69615	0.15248
2304.76748	0.15265
2302.83880	0.15282
2300.91013	0.15302
2298.98145	0.15321
2297.05277	0.15336
2295.12410	0.15352
2293.19542	0.15371
2291.26675	0.15390
2289.33807	0.15408
2287.40940	0.15422
2285.48072	0.15435
2283.55204	0.15453
2281.62337	0.15474
2279.69469	0.15493
2277.76602	0.15509
2275.83734	0.15525
2273.90867	0.15541
2271.97999	0.15557
2270.05131	0.15573
2268.12264	0.15590
2266.19396	0.15606
2264.26529	0.15620
2262.33661	0.15635
2260.40794	0.15651
2258.47926	0.15667
2256.55058	0.15681
2254.62191	0.15694
2252.69323	0.15706
2250.76456	0.15723
2248.83588	0.15744
2246.90721	0.15766
2244.97853	0.15784
2243.04985	0.15800
2241.12118	0.15815
2239.19250	0.15832
2237.26383	0.15849
2235.33515	0.15865
2233.40648	0.15880
2231.47780	0.15896
2229.54912	0.15913
2227.62045	0.15930
2225.69177	0.15946
2223.76310	0.15964
2221.83442	0.15981
2219.90575	0.15994
2217.97707	0.16010
2216.04839	0.16028
2214.11972	0.16046
2212.19104	0.16061
2210.26237	0.16074
2208.33369	0.16089
2206.40502	0.16104
2204.47634	0.16119
2202.54766	0.16134
2200.61899	0.16150
2198.69031	0.16170
2196.76164	0.16189
2194.83296	0.16205
2192.90429	0.16218
2190.97561	0.16231
2189.04693	0.16246
2187.11826	0.16263
2185.18958	0.16281
2183.26091	0.16299
2181.33223	0.16318
2179.40356	0.16334
2177.47488	0.16347
2175.54620	0.16362
2173.61753	0.16379
2171.68885	0.16394
2169.76018	0.16408
2167.83150	0.16424
2165.90283	0.16439
2163.97415	0.16455
2162.04547	0.16472
2160.11680	0.16490
2158.18812	0.16510
2156.25945	0.16531
2154.33077	0.16550
2152.40210	0.16565
2150.47342	0.16579
2148.54474	0.16595
2146.61607	0.16613
2144.68739	0.16630
2142.75872	0.16645
2140.83004	0.16659
2138.90137	0.16675
2136.97269	0.16696
2135.04401	0.16718
2133.11534	0.16738
2131.18666	0.16751
2129.25799	0.16759
2127.32931	0.16772
2125.40064	0.16792
2123.47196	0.16813
2121.54328	0.16831
2119.61461	0.16848
2117.68593	0.16867
2115.75726	0.16886
2113.82858	0.16903
2111.89991	0.16919
2109.97123	0.16937
2108.04255	0.16958
2106.11388	0.16975
2104.18520	0.16986
2102.25653	0.16997
2100.32785	0.17014
2098.39918	0.17034
2096.47050	0.17051
2094.54182	0.17069
2092.61315	0.17087
2090.68447	0.17104
2088.75580	0.17122
2086.82712	0.17141
2084.89845	0.17157
2082.96977	0.17172
2081.04109	0.17188
2079.11242	0.17205
2077.18374	0.17224
2075.25507	0.17240
2073.32639	0.17251
2071.39772	0.17263
2069.46904	0.17280
2067.54036	0.17296
2065.61169	0.17311
2063.68301	0.17326
2061.75434	0.17345
2059.82566	0.17366
2057.89699	0.17385
2055.96831	0.17396
2054.03963	0.17407
2052.11096	0.17422
2050.18228	0.17442
2048.25361	0.17464
2046.32493	0.17486
2044.39626	0.17503
2042.46758	0.17517
2040.53890	0.17533
2038.61023	0.17550
2036.68155	0.17568
2034.75288	0.17588
2032.82420	0.17605
2030.89553	0.17617
2028.96685	0.17631
2027.03817	0.17650
2025.10950	0.17671
2023.18082	0.17690
2021.25215	0.17705
2019.32347	0.17718
2017.39480	0.17730
2015.46612	0.17745
2013.53744	0.17764
2011.60877	0.17785
2009.68009	0.17804
2007.75142	0.17825
2005.82274	0.17843
2003.89407	0.17858
2001.96539	0.17871
2000.03671	0.17882
1998.10804	0.17893
1996.17936	0.17910
1994.25069	0.17926
1992.32201	0.17938
1990.39334	0.17954
1988.46466	0.17975
1986.53598	0.17993
1984.60731	0.18008
1982.67863	0.18023
1980.74996	0.18040
1978.82128	0.18054
1976.89261	0.18062
1974.96393	0.18072
1973.03525	0.18089
1971.10658	0.18108
1969.17790	0.18123
1967.24923	0.18139
1965.32055	0.18156
1963.39188	0.18168
1961.46320	0.18180
1959.53452	0.18197
1957.60585	0.18218
1955.67717	0.18237
1953.74850	0.18255
1951.81982	0.18271
1949.89115	0.18284
1947.96247	0.18292
1946.03379	0.18297
1944.10512	0.18306
1942.17644	0.18326
1940.24777	0.18357
1938.31909	0.18383
1936.39042	0.18399
1934.46174	0.18414
1932.53306	0.18429
1930.60439	0.18443
1928.67571	0.18456
1926.74704	0.18466
1924.81836	0.18471
1922.88969	0.18480
1920.96101	0.18499
1919.03233	0.18521
1917.10366	0.18544
1915.17498	0.18571
1913.24631	0.18589
1911.31763	0.18600
1909.38896	0.18613
1907.46028	0.18630
1905.53160	0.18651
1903.60293	0.18669
1901.67425	0.18681
1899.74558	0.18693
1897.81690	0.18708
1895.88823	0.18721
1893.95955	0.18734
1892.03087	0.18747
1890.10220	0.18762
1888.17352	0.18785
1886.24485	0.18806
1884.31617	0.18821
1882.38750	0.18836
1880.45882	0.18851
1878.53014	0.18867
1876.60147	0.18884
1874.67279	0.18898
1872.74412	0.18898
1870.81544	0.18882
1868.88677	0.18883
1866.95809	0.18923
1865.02941	0.18974
1863.10074	0.19004
1861.17206	0.19019
1859.24339	0.19034
1857.31471	0.19055
1855.38604	0.19075
1853.45736	0.19090
1851.52868	0.19105
1849.60001	0.19118
1847.67133	0.19125
1845.74266	0.19125
1843.81398	0.19137
1841.88531	0.19168
1839.95663	0.19201
1838.02795	0.19221
1836.09928	0.19238
1834.17060	0.19251
1832.24193	0.19253
1830.31325	0.19255
1828.38458	0.19273
1826.45590	0.19294
1824.52722	0.19315
1822.59855	0.19342
1820.66987	0.19364
1818.74120	0.19376
1816.81252	0.19387
1814.88385	0.19398
1812.95517	0.19406
1811.02649	0.19416
1809.09782	0.19434
1807.16914	0.19456
1805.24047	0.19471
1803.31179	0.19474
1801.38312	0.19475
1799.45444	0.19486
1797.52576	0.19500
1795.59709	0.19500
1793.66841	0.19489
1791.73974	0.19505
1789.81106	0.19551
1787.88239	0.19583
1785.95371	0.19584
1784.02503	0.19588
1782.09636	0.19607
1780.16768	0.19630
1778.23901	0.19648
1776.31033	0.19654
1774.38166	0.19648
1772.45298	0.19645
1770.52430	0.19658
1768.59563	0.19684
1766.66695	0.19708
1764.73828	0.19717
1762.80960	0.19714
1760.88093	0.19717
1758.95225	0.19728
1757.02357	0.19739
1755.09490	0.19735
1753.16622	0.19692
1751.23755	0.19650
1749.30887	0.19665
1747.38020	0.19704
1745.45152	0.19720
1743.52284	0.19716
1741.59417	0.19704
1739.66549	0.19704
1737.73682	0.19718
1735.80814	0.19714
1733.87947	0.19707
1731.95079	0.19735
1730.02211	0.19779
1728.09344	0.19816
1726.16476	0.19843
1724.23609	0.19857
1722.30741	0.19859
1720.37874	0.19836
1718.45006	0.19801
1716.52138	0.19808
1714.59271	0.19863
1712.66403	0.19919
1710.73536	0.19950
1708.80668	0.19953
1706.87801	0.19941
1704.94933	0.19938
1703.02065	0.19925
1701.09198	0.19901
1699.16330	0.19905
1697.23463	0.19933
1695.30595	0.19965
1693.37728	0.19997
1691.44860	0.20009
1689.51992	0.20006
1687.59125	0.20000
1685.66257	0.19977
1683.73390	0.19963
1681.80522	0.19991
1679.87655	0.20024
1677.94787	0.20008
1676.01919	0.19968
1674.09052	0.19961
1672.16184	0.19979
1670.23317	0.19999
1668.30449	0.20035
1666.37582	0.20070
1664.44714	0.20073
1662.51846	0.20069
1660.58979	0.20089
1658.66111	0.20108
1656.73244	0.20079
1654.80376	0.19999
1652.87509	0.19953
1650.94641	0.19986
1649.01773	0.20020
1647.08906	0.20032
1645.16038	0.20072
1643.23171	0.20120
1641.30303	0.20140
1639.37436	0.20126
1637.44568	0.20098
1635.51700	0.20100
1633.58833	0.20140
1631.65965	0.20177
1629.73098	0.20184
1627.80230	0.20172
1625.87363	0.20150
1623.94495	0.20115
1622.01627	0.20084
1620.08760	0.20075
1618.15892	0.20088
1616.23025	0.20142
1614.30157	0.20228
1612.37290	0.20290
1610.44422	0.20317
1608.51554	0.20335
1606.58687	0.20356
1604.65819	0.20377
1602.72952	0.20398
1600.80084	0.20419
1598.87217	0.20439
1596.94349	0.20458
1595.01481	0.20478
1593.08614	0.20502
1591.15746	0.20524
1589.22879	0.20540
1587.30011	0.20553
1585.37144	0.20567
1583.44276	0.20586
1581.51408	0.20601
1579.58541	0.20591
1577.65673	0.20556
1575.72806	0.20553
1573.79938	0.20602
1571.87071	0.20640
1569.94203	0.20646
1568.01335	0.20652
1566.08468	0.20666
1564.15600	0.20672
1562.22733	0.20638
1560.29865	0.20582
1558.36998	0.20588
1556.44130	0.20663
1554.51262	0.20733
1552.58395	0.20768
1550.65527	0.20781
1548.72660	0.20784
1546.79792	0.20768
1544.86925	0.20731
1542.94057	0.20702
1541.01189	0.20711
1539.08322	0.20765
1537.15454	0.20812
1535.22587	0.20807
1533.29719	0.20800
1531.36852	0.20838
1529.43984	0.20871
1527.51116	0.20867
1525.58249	0.20849
1523.65381	0.20824
1521.72514	0.20811
1519.79646	0.20835
1517.86779	0.20866
1515.93911	0.20885
1514.01043	0.20907
1512.08176	0.20915
1510.15308	0.20877
1508.22441	0.20818
1506.29573	0.20829
1504.36706	0.20911
1502.43838	0.20962
1500.50970	0.20950
1498.58103	0.20922
1496.65235	0.20921
1494.72368	0.20948
1492.79500	0.20958
1490.86633	0.20938
1488.93765	0.20919
1487.00897	0.20923
1485.08030	0.20938
1483.15162	0.20938
1481.22295	0.20920
1479.29427	0.20881
1477.36560	0.20820
1475.43692	0.20760
1473.50824	0.20723
1471.57957	0.20715
1469.65089	0.20721
1467.72222	0.20697
1465.79354	0.20648
1463.86487	0.20627
1461.93619	0.20627
1460.00751	0.20578
1458.07884	0.20499
1456.15016	0.20488
1454.22149	0.20549
1452.29281	0.20595
1450.36414	0.20600
1448.43546	0.20600
1446.50678	0.20616
1444.57811	0.20638
1442.64943	0.20656
1440.72076	0.20663
1438.79208	0.20653
1436.86341	0.20651
1434.93473	0.20682
1433.00605	0.20714
1431.07738	0.20721
1429.14870	0.20723
1427.22003	0.20733
1425.29135	0.20739
1423.36268	0.20729
1421.43400	0.20686
1419.50532	0.20646
1417.57665	0.20675
1415.64797	0.20738
1413.71930	0.20766
1411.79062	0.20773
1409.86195	0.20779
1407.93327	0.20777
1406.00459	0.20765
1404.07592	0.20760
1402.14724	0.20754
1400.21857	0.20736
1398.28989	0.20719
1396.36122	0.20715
1394.43254	0.20722
1392.50386	0.20731
1390.57519	0.20721
1388.64651	0.20686
1386.71784	0.20649
1384.78916	0.20636
1382.86049	0.20643
1380.93181	0.20652
1379.00313	0.20648
1377.07446	0.20633
1375.14578	0.20620
1373.21711	0.20622
1371.28843	0.20633
1369.35976	0.20639
1367.43108	0.20640
1365.50240	0.20635
1363.57373	0.20618
1361.64505	0.20608
1359.71638	0.20615
1357.78770	0.20631
1355.85903	0.20644
1353.93035	0.20653
1352.00167	0.20664
1350.07300	0.20680
1348.14432	0.20697
1346.21565	0.20704
1344.28697	0.20701
1342.35830	0.20691
1340.42962	0.20673
1338.50094	0.20664
1336.57227	0.20670
1334.64359	0.20676
1332.71492	0.20670
1330.78624	0.20660
1328.85757	0.20647
1326.92889	0.20627
1325.00021	0.20601
1323.07154	0.20574
1321.14286	0.20551
1319.21419	0.20535
1317.28551	0.20522
1315.35684	0.20506
1313.42816	0.20489
1311.49948	0.20473
1309.57081	0.20455
1307.64213	0.20431
1305.71346	0.20402
1303.78478	0.20378
1301.85611	0.20361
1299.92743	0.20343
1297.99875	0.20323
1296.07008	0.20306
1294.14140	0.20293
1292.21273	0.20280
1290.28405	0.20259
1288.35538	0.20229
1286.42670	0.20198
1284.49802	0.20176
1282.56935	0.20159
1280.64067	0.20141
1278.71200	0.20116
1276.78332	0.20078
1274.85465	0.20034
1272.92597	0.19983
1270.99729	0.19919
1269.06862	0.19835
1267.13994	0.19741
1265.21127	0.19657
1263.28259	0.19599
1261.35392	0.19578
1259.42524	0.19588
1257.49656	0.19605
1255.56789	0.19613
1253.63921	0.19612
1251.71054	0.19602
1249.78186	0.19579
1247.85319	0.19545
1245.92451	0.19506
1243.99583	0.19463
1242.06716	0.19421
1240.13848	0.19380
1238.20981	0.19333
1236.28113	0.19278
1234.35246	0.19224
1232.42378	0.19170
1230.49510	0.19109
1228.56643	0.19044
1226.63775	0.18985
1224.70908	0.18933
1222.78040	0.18885
1220.85173	0.18839
1218.92305	0.18788
1216.99437	0.18731
1215.06570	0.18677
1213.13702	0.18627
1211.20835	0.18573
1209.27967	0.18516
1207.35100	0.18459
1205.42232	0.18403
1203.49364	0.18347
1201.56497	0.18287
1199.63629	0.18223
1197.70762	0.18160
1195.77894	0.18098
1193.85027	0.18034
1191.92159	0.17969
1189.99291	0.17898
1188.06424	0.17824
1186.13556	0.17746
1184.20689	0.17662
1182.27821	0.17578
1180.34954	0.17498
1178.42086	0.17416
1176.49218	0.17330
1174.56351	0.17242
1172.63483	0.17158
1170.70616	0.17073
1168.77748	0.16986
1166.84881	0.16896
1164.92013	0.16806
1162.99145	0.16719
1161.06278	0.16638
1159.13410	0.16557
1157.20543	0.16472
1155.27675	0.16391
1153.34808	0.16314
1151.41940	0.16232
1149.49072	0.16146
1147.56205	0.16059
1145.63337	0.15973
1143.70470	0.15886
1141.77602	0.15793
1139.84735	0.15694
1137.91867	0.15587
1135.98999	0.15466
1134.06132	0.15328
1132.13264	0.15167
1130.20397	0.14977
1128.27529	0.14762
1126.34662	0.14533
1124.41794	0.14297
1122.48926	0.14056
1120.56059	0.13816
1118.63191	0.13587
1116.70324	0.13373
1114.77456	0.13179
1112.84589	0.13014
1110.91721	0.12882
1108.98853	0.12776
1107.05986	0.12699
1105.13118	0.12652
1103.20251	0.12633
1101.27383	0.12643
1099.34516	0.12687
1097.41648	0.12760
1095.48780	0.12842
1093.55913	0.12924
1091.63045	0.13010
1089.70178	0.13095
1087.77310	0.13171
1085.84443	0.13234
1083.91575	0.13285
1081.98707	0.13325
1080.05840	0.13357
1078.12972	0.13382
1076.20105	0.13398
1074.27237	0.13408
1072.34370	0.13419
1070.41502	0.13429
1068.48634	0.13439
1066.55767	0.13451
1064.62899	0.13468
1062.70032	0.13483
1060.77164	0.13500
1058.84297	0.13526
1056.91429	0.13558
1054.98561	0.13591
1053.05694	0.13624
1051.12826	0.13655
1049.19959	0.13685
1047.27091	0.13719
1045.34224	0.13764
1043.41356	0.13810
1041.48488	0.13848
1039.55621	0.13887
1037.62753	0.13933
1035.69886	0.13976
1033.77018	0.14010
1031.84151	0.14040
1029.91283	0.14069
1027.98415	0.14104
1026.05548	0.14143
1024.12680	0.14179
1022.19813	0.14211
1020.26945	0.14248
1018.34078	0.14293
1016.41210	0.14345
1014.48342	0.14394
1012.55475	0.14444
1010.62607	0.14506
1008.69740	0.14576
1006.76872	0.14636
1004.84005	0.14681
1002.91137	0.14721
1000.98269	0.14755
999.05402	0.14787
997.12534	0.14813
995.19667	0.14825
993.26799	0.14831
991.33932	0.14839
989.41064	0.14849
987.48196	0.14855
985.55329	0.14861
983.62461	0.14861
981.69594	0.14853
979.76726	0.14840
977.83859	0.14824
975.90991	0.14802
973.98123	0.14776
972.05256	0.14752
970.12388	0.14732
968.19521	0.14719
966.26653	0.14710
964.33786	0.14699
962.40918	0.14684
960.48050	0.14665
958.55183	0.14645
956.62315	0.14629
954.69448	0.14618
952.76580	0.14606
950.83713	0.14586
948.90845	0.14564
946.97977	0.14549
945.05110	0.14535
943.12242	0.14512
941.19375	0.14474
939.26507	0.14426
937.33640	0.14379
935.40772	0.14334
933.47904	0.14282
931.55037	0.14227
929.62169	0.14177
927.69302	0.14132
925.76434	0.14087
923.83567	0.14035
921.90699	0.13971
919.97831	0.13899
918.04964	0.13828
916.12096	0.13759
914.19229	0.13685
912.26361	0.13609
910.33494	0.13535
908.40626	0.13460
906.47758	0.13388
904.54891	0.13323
902.62023	0.13261
900.69156	0.13204
898.76288	0.13153
896.83421	0.13100
894.90553	0.13048
892.97685	0.12997
891.04818	0.12946
889.11950	0.12901
887.19083	0.12858
885.26215	0.12813
883.33348	0.12774
881.40480	0.12745
879.47612	0.12717
877.54745	0.12688
875.61877	0.12661
873.69010	0.12636
871.76142	0.12613
869.83275	0.12590
867.90407	0.12566
865.97539	0.12541
864.04672	0.12520
862.11804	0.12510
860.18937	0.12510
858.26069	0.12509
856.33202	0.12496
854.40334	0.12473
852.47466	0.12450
850.54599	0.12429
848.61731	0.12400
846.68864	0.12370
844.75996	0.12347
842.83129	0.12326
840.90261	0.12296
838.97394	0.12255
837.04526	0.12199
835.11658	0.12131
833.18791	0.12052
831.25923	0.11963
829.33056	0.11868
827.40188	0.11761
825.47321	0.11651
823.54453	0.11551
821.61585	0.11463
819.68718	0.11389
817.75850	0.11333
815.82983	0.11289
813.90115	0.11250
811.97248	0.11220
810.04380	0.11197
808.11512	0.11183
806.18645	0.11177
804.25777	0.11171
802.32910	0.11161
800.40042	0.11143
798.47175	0.11101
796.54307	0.11039
794.61439	0.10979
792.68572	0.10937
790.75704	0.10907
788.82837	0.10884
786.89969	0.10861
784.97102	0.10832
783.04234	0.10798
781.11366	0.10764
779.18499	0.10734
777.25631	0.10705
775.32764	0.10675
773.39896	0.10647
771.47029	0.10617
769.54161	0.10581
767.61293	0.10542
765.68426	0.10502
763.75558	0.10456
761.82691	0.10405
759.89823	0.10352
757.96956	0.10297
756.04088	0.10240
754.11220	0.10182
752.18353	0.10116
750.25485	0.10042
748.32618	0.09967
746.39750	0.09892
744.46883	0.09811
742.54015	0.09721
740.61147	0.09636
738.68280	0.09579
736.75412	0.09553
734.82545	0.09545
732.89677	0.09547
730.96810	0.09557
729.03942	0.09570
727.11074	0.09581
725.18207	0.09587
723.25339	0.09591
721.32472	0.09605
719.39604	0.09629
717.46737	0.09656
715.53869	0.09688
713.61001	0.09729
711.68134	0.09771
709.75266	0.09805
707.82399	0.09824
705.89531	0.09825
703.96664	0.09808
702.03796	0.09774
700.10928	0.09727
698.18061	0.09664
696.25193	0.09595
694.32326	0.09531
692.39458	0.09478
690.46591	0.09432
688.53723	0.09384
686.60855	0.09336
684.67988	0.09295
682.75120	0.09252
680.82253	0.09187
678.89385	0.09102
676.96518	0.09026
675.03650	0.08969
673.10782	0.08914
671.17915	0.08847
669.25047	0.08770
667.32180	0.08693
665.39312	0.08615
663.46445	0.08524
661.53577	0.08422
659.60709	0.08328
657.67842	0.08245
655.74974	0.08164
653.82107	0.08088
651.89239	0.08020
649.96372	0.07946
648.03504	0.07855
646.10636	0.07757
644.17769	0.07665
642.24901	0.07569
640.32034	0.07469
638.39166	0.07372
636.46299	0.07266
634.53431	0.07139
632.60563	0.06980
630.67696	0.06737
628.74828	0.06375
626.81961	0.05920
624.89093	0.05458
622.96226	0.05094
621.03358	0.04871
619.10490	0.04753
617.17623	0.04676
615.24755	0.04586
613.31888	0.04476
611.39020	0.04371
609.46153	0.04315
607.53285	0.04325
605.60417	0.04369
603.67550	0.04431
601.74682	0.04517
599.81815	0.04618
597.88947	0.04706
595.96080	0.04764
594.03212	0.04803
592.10344	0.04834
590.17477	0.04848
588.24609	0.04844
586.31742	0.04830
584.38874	0.04808
582.46007	0.04782
580.53139	0.04753
578.60271	0.04715
576.67404	0.04665
574.74536	0.04604
572.81669	0.04541
570.88801	0.04476
568.95934	0.04402
567.03066	0.04333
565.10198	0.04292
563.17331	0.04273
561.24463	0.04253
559.31596	0.04229
557.38728	0.04200
555.45861	0.04165
553.52993	0.04136
551.60125	0.04115
549.67258	0.04098
547.74390	0.04084
545.81523	0.04071
543.88655	0.04059
541.95788	0.04054
540.02920	0.04047
538.10052	0.04025
536.17185	0.03992
534.24317	0.03962
532.31450	0.03939
530.38582	0.03913
528.45715	0.03876
526.52847	0.03839
524.59979	0.03812
522.67112	0.03792
520.74244	0.03762
518.81377	0.03702
516.88509	0.03624
514.95642	0.03559
513.02774	0.03514
511.09906	0.03489
509.17039	0.03477
507.24171	0.03467
505.31304	0.03445
503.38436	0.03409
501.45569	0.03367
499.52701	0.03322
497.59833	0.03268
495.66966	0.03202
493.74098	0.03130
491.81231	0.03062
489.88363	0.03000
487.95496	0.02946
486.02628	0.02905
484.09760	0.02868
482.16893	0.02817
480.24025	0.02751
478.31158	0.02683
476.38290	0.02625
474.45423	0.02581
472.52555	0.02540
470.59687	0.02483
468.66820	0.02421
466.73952	0.02377
464.81085	0.02355
462.88217	0.02354
460.95350	0.02365
459.02482	0.02366
457.09614	0.02345
455.16747	0.02321
453.23879	0.02315
451.31012	0.02323
449.38144	0.02323
447.45277	0.02310
445.52409	0.02291
443.59541	0.02271
441.66674	0.02245
439.73806	0.02202
437.80939	0.02144
435.88071	0.02090
433.95204	0.02050
432.02336	0.02006
430.09468	0.01948
428.16601	0.01887
426.23733	0.01832
424.30866	0.01773
422.37998	0.01704
420.45131	0.01635
418.52263	0.01563
416.59395	0.01487
414.66528	0.01418
412.73660	0.01364
410.80793	0.01311
408.87925	0.01242
406.95058	0.01166
405.02190	0.01102
403.09322	0.01042
401.16455	0.00972
399.23587	0.00895
397.30720	0.00833
395.37852	0.00794
393.44985	0.00756
391.52117	0.00706
389.59249	0.00657
387.66382	0.00617
385.73514	0.00575
383.80647	0.00527
381.87779	0.00480
379.94912	0.00439
378.02044	0.00404
376.09176	0.00371
374.16309	0.00340
372.23441	0.00306
370.30574	0.00271
368.37706	0.00242
