7496.76250	0.00122
7494.83382	0.00122
7492.90514	0.00122
7490.97647	0.00122
7489.04779	0.00121
7487.11912	0.00122
7485.19044	0.00123
7483.26177	0.00124
7481.33309	0.00125
7479.40441	0.00127
7477.47574	0.00127
7475.54706	0.00128
7473.61839	0.00128
7471.68971	0.00127
7469.76104	0.00127
7467.83236	0.00128
7465.90368	0.00128
7463.97501	0.00127
7462.04633	0.00127
7460.11766	0.00127
7458.18898	0.00127
7456.26031	0.00128
7454.33163	0.00129
7452.40295	0.00130
7450.47428	0.00130
7448.54560	0.00129
7446.61693	0.00129
7444.68825	0.00131
7442.75958	0.00131
7440.83090	0.00132
7438.90222	0.00132
7436.97355	0.00132
7435.04487	0.00132
7433.11620	0.00132
7431.18752	0.00132
7429.25885	0.00132
7427.33017	0.00132
7425.40149	0.00133
7423.47282	0.00135
7421.54414	0.00136
7419.61547	0.00136
7417.68679	0.00136
7415.75812	0.00137
7413.82944	0.00136
7411.90076	0.00135
7409.97209	0.00134
7408.04341	0.00135
7406.11474	0.00137
7404.18606	0.00140
7402.25739	0.00141
7400.32871	0.00141
7398.40003	0.00141
7396.47136	0.00140
7394.54268	0.00140
7392.61401	0.00139
7390.68533	0.00138
7388.75666	0.00139
7386.82798	0.00140
7384.89930	0.00141
7382.97063	0.00142
7381.04195	0.00142
7379.11328	0.00142
7377.18460	0.00142
7375.25593	0.00142
7373.32725	0.00142
7371.39857	0.00144
7369.46990	0.00146
7367.54122	0.00146
7365.61255	0.00146
7363.68387	0.00146
7361.75520	0.00147
7359.82652	0.00147
7357.89784	0.00147
7355.96917	0.00147
7354.04049	0.00147
7352.11182	0.00147
7350.18314	0.00147
7348.25447	0.00147
7346.32579	0.00147
7344.39711	0.00147
7342.46844	0.00146
7340.53976	0.00147
7338.61109	0.00150
7336.68241	0.00153
7334.75374	0.00153
7332.82506	0.00152
7330.89638	0.00153
7328.96771	0.00154
7327.03903	0.00154
7325.11036	0.00153
7323.18168	0.00152
7321.25301	0.00152
7319.32433	0.00153
7317.39565	0.00153
7315.46698	0.00153
7313.53830	0.00154
7311.60963	0.00154
7309.68095	0.00154
7307.75228	0.00154
7305.82360	0.00156
7303.89492	0.00157
7301.96625	0.00158
7300.03757	0.00158
7298.10890	0.00157
7296.18022	0.00158
7294.25155	0.00159
7292.32287	0.00161
7290.39419	0.00162
7288.46552	0.00163
7286.53684	0.00163
7284.60817	0.00163
7282.67949	0.00163
7280.75082	0.00162
7278.82214	0.00163
7276.89346	0.00163
7274.96479	0.00164
7273.03611	0.00164
7271.10744	0.00165
7269.17876	0.00166
7267.25009	0.00165
7265.32141	0.00164
7263.39273	0.00164
7261.46406	0.00166
7259.53538	0.00166
7257.60671	0.00166
7255.67803	0.00167
7253.74936	0.00167
7251.82068	0.00168
7249.89200	0.00169
7247.96333	0.00170
7246.03465	0.00169
7244.10598	0.00169
7242.17730	0.00170
7240.24863	0.00171
7238.31995	0.00172
7236.39127	0.00172
7234.46260	0.00171
7232.53392	0.00170
7230.60525	0.00171
7228.67657	0.00172
7226.74790	0.00172
7224.81922	0.00172
7222.89054	0.00174
7220.96187	0.00175
7219.03319	0.00175
7217.10452	0.00174
7215.17584	0.00173
7213.24717	0.00174
7211.31849	0.00176
7209.38981	0.00177
7207.46114	0.00177
7205.53246	0.00176
7203.60379	0.00176
7201.67511	0.00177
7199.74644	0.00177
7197.81776	0.00177
7195.88908	0.00177
7193.96041	0.00178
7192.03173	0.00179
7190.10306	0.00180
7188.17438	0.00180
7186.24571	0.00181
7184.31703	0.00182
7182.38835	0.00183
7180.45968	0.00184
7178.53100	0.00184
7176.60233	0.00184
7174.67365	0.00183
7172.74498	0.00183
7170.81630	0.00183
7168.88762	0.00183
7166.95895	0.00183
7165.03027	0.00183
7163.10160	0.00182
7161.17292	0.00181
7159.24425	0.00182
7157.31557	0.00184
7155.38689	0.00186
7153.45822	0.00188
7151.52954	0.00189
7149.60087	0.00190
7147.67219	0.00191
7145.74352	0.00191
7143.81484	0.00192
7141.88616	0.00192
7139.95749	0.00191
7138.02881	0.00191
7136.10014	0.00191
7134.17146	0.00190
7132.24279	0.00190
7130.31411	0.00191
7128.38543	0.00191
7126.45676	0.00191
7124.52808	0.00192
7122.59941	0.00193
7120.67073	0.00193
7118.74206	0.00194
7116.81338	0.00196
7114.88470	0.00199
7112.95603	0.00198
7111.02735	0.00196
7109.09868	0.00195
7107.17000	0.00195
7105.24133	0.00196
7103.31265	0.00198
7101.38397	0.00200
7099.45530	0.00201
7097.52662	0.00201
7095.59795	0.00201
7093.66927	0.00200
7091.74060	0.00199
7089.81192	0.00200
7087.88324	0.00201
7085.95457	0.00202
7084.02589	0.00203
7082.09722	0.00204
7080.16854	0.00205
7078.23987	0.00205
7076.31119	0.00205
7074.38251	0.00205
7072.45384	0.00205
7070.52516	0.00205
7068.59649	0.00205
7066.66781	0.00206
7064.73914	0.00206
7062.81046	0.00206
7060.88178	0.00208
7058.95311	0.00210
7057.02443	0.00211
7055.09576	0.00211
7053.16708	0.00212
7051.23841	0.00212
7049.30973	0.00212
7047.38105	0.00212
7045.45238	0.00212
7043.52370	0.00214
7041.59503	0.00214
7039.66635	0.00213
7037.73768	0.00213
7035.80900	0.00213
7033.88032	0.00212
7031.95165	0.00213
7030.02297	0.00215
7028.09430	0.00217
7026.16562	0.00217
7024.23695	0.00217
7022.30827	0.00218
7020.37959	0.00219
7018.45092	0.00218
7016.52224	0.00218
7014.59357	0.00220
7012.66489	0.00221
7010.73622	0.00221
7008.80754	0.00220
7006.87886	0.00220
7004.95019	0.00221
7003.02151	0.00221
7001.09284	0.00221
6999.16416	0.00221
6997.23549	0.00223
6995.30681	0.00224
6993.37813	0.00225
6991.44946	0.00226
6989.52078	0.00226
6987.59211	0.00225
6985.66343	0.00224
6983.73476	0.00226
6981.80608	0.00229
6979.87740	0.00231
6977.94873	0.00231
6976.02005	0.00229
6974.09138	0.00229
6972.16270	0.00230
6970.23403	0.00229
6968.30535	0.00228
6966.37667	0.00227
6964.44800	0.00228
6962.51932	0.00231
6960.59065	0.00234
6958.66197	0.00235
6956.73330	0.00235
6954.80462	0.00234
6952.87594	0.00234
6950.94727	0.00234
6949.01859	0.00235
6947.08992	0.00236
6945.16124	0.00237
6943.23257	0.00237
6941.30389	0.00238
6939.37521	0.00238
6937.44654	0.00237
6935.51786	0.00237
6933.58919	0.00237
6931.66051	0.00238
6929.73184	0.00238
6927.80316	0.00238
6925.87448	0.00238
6923.94581	0.00238
6922.01713	0.00239
6920.08846	0.00241
6918.15978	0.00243
6916.23111	0.00244
6914.30243	0.00245
6912.37375	0.00246
6910.44508	0.00246
6908.51640	0.00246
6906.58773	0.00246
6904.65905	0.00245
6902.73038	0.00246
6900.80170	0.00248
6898.87302	0.00250
6896.94435	0.00251
6895.01567	0.00253
6893.08700	0.00253
6891.15832	0.00252
6889.22965	0.00250
6887.30097	0.00249
6885.37229	0.00252
6883.44362	0.00254
6881.51494	0.00255
6879.58627	0.00255
6877.65759	0.00254
6875.72892	0.00253
6873.80024	0.00252
6871.87156	0.00254
6869.94289	0.00256
6868.01421	0.00258
6866.08554	0.00260
6864.15686	0.00261
6862.22819	0.00261
6860.29951	0.00262
6858.37083	0.00263
6856.44216	0.00264
6854.51348	0.00263
6852.58481	0.00263
6850.65613	0.00264
6848.72746	0.00264
6846.79878	0.00264
6844.87010	0.00263
6842.94143	0.00264
6841.01275	0.00264
6839.08408	0.00265
6837.15540	0.00266
6835.22673	0.00267
6833.29805	0.00267
6831.36937	0.00267
6829.44070	0.00266
6827.51202	0.00267
6825.58335	0.00268
6823.65467	0.00270
6821.72600	0.00272
6819.79732	0.00273
6817.86864	0.00273
6815.93997	0.00274
6814.01129	0.00274
6812.08262	0.00274
6810.15394	0.00273
6808.22527	0.00273
6806.29659	0.00274
6804.36791	0.00275
6802.43924	0.00275
6800.51056	0.00274
6798.58189	0.00275
6796.65321	0.00277
6794.72454	0.00279
6792.79586	0.00280
6790.86718	0.00278
6788.93851	0.00277
6787.00983	0.00277
6785.08116	0.00279
6783.15248	0.00281
6781.22381	0.00283
6779.29513	0.00283
6777.36645	0.00283
6775.43778	0.00283
6773.50910	0.00284
6771.58043	0.00284
6769.65175	0.00285
6767.72308	0.00286
6765.79440	0.00288
6763.86572	0.00289
6761.93705	0.00289
6760.00837	0.00290
6758.07970	0.00291
6756.15102	0.00291
6754.22235	0.00291
6752.29367	0.00291
6750.36499	0.00290
6748.43632	0.00289
6746.50764	0.00291
6744.57897	0.00293
6742.65029	0.00295
6740.72162	0.00296
6738.79294	0.00296
6736.86426	0.00297
6734.93559	0.00297
6733.00691	0.00296
6731.07824	0.00297
6729.14956	0.00299
6727.22089	0.00302
6725.29221	0.00303
6723.36353	0.00302
6721.43486	0.00302
6719.50618	0.00302
6717.57751	0.00302
6715.64883	0.00303
6713.72016	0.00304
6711.79148	0.00305
6709.86280	0.00307
6707.93413	0.00308
6706.00545	0.00308
6704.07678	0.00308
6702.14810	0.00308
6700.21943	0.00309
6698.29075	0.00310
6696.36207	0.00310
6694.43340	0.00310
6692.50472	0.00311
6690.57605	0.00313
6688.64737	0.00314
6686.71870	0.00313
6684.79002	0.00312
6682.86134	0.00313
6680.93267	0.00314
6679.00399	0.00314
6677.07532	0.00315
6675.14664	0.00317
6673.21797	0.00319
6671.28929	0.00321
6669.36061	0.00321
6667.43194	0.00320
6665.50326	0.00320
6663.57459	0.00321
6661.64591	0.00321
6659.71724	0.00321
6657.78856	0.00321
6655.85988	0.00322
6653.93121	0.00324
6652.00253	0.00323
6650.07386	0.00323
6648.14518	0.00324
6646.21651	0.00324
6644.28783	0.00324
6642.35915	0.00325
6640.43048	0.00328
6638.50180	0.00331
6636.57313	0.00331
6634.64445	0.00329
6632.71578	0.00330
6630.78710	0.00332
6628.85842	0.00332
6626.92975	0.00332
6625.00107	0.00331
6623.07240	0.00331
6621.14372	0.00332
6619.21505	0.00335
6617.28637	0.00338
6615.35769	0.00339
6613.42902	0.00338
6611.50034	0.00336
6609.57167	0.00336
6607.64299	0.00338
6605.71432	0.00341
6603.78564	0.00344
6601.85696	0.00345
6599.92829	0.00346
6597.99961	0.00347
6596.07094	0.00348
6594.14226	0.00347
6592.21359	0.00347
6590.28491	0.00347
6588.35623	0.00347
6586.42756	0.00347
6584.49888	0.00348
6582.57021	0.00349
6580.64153	0.00348
6578.71286	0.00347
6576.78418	0.00347
6574.85550	0.00348
6572.92683	0.00350
6570.99815	0.00352
6569.06948	0.00355
6567.14080	0.00357
6565.21213	0.00357
6563.28345	0.00356
6561.35477	0.00355
6559.42610	0.00354
6557.49742	0.00356
6555.56875	0.00359
6553.64007	0.00361
6551.71140	0.00362
6549.78272	0.00361
6547.85404	0.00362
6545.92537	0.00364
6543.99669	0.00365
6542.06802	0.00365
6540.13934	0.00365
6538.21067	0.00366
6536.28199	0.00367
6534.35331	0.00368
6532.42464	0.00367
6530.49596	0.00367
6528.56729	0.00368
6526.63861	0.00368
6524.70994	0.00368
6522.78126	0.00368
6520.85258	0.00370
6518.92391	0.00372
6516.99523	0.00373
6515.06656	0.00373
6513.13788	0.00374
6511.20921	0.00376
6509.28053	0.00376
6507.35185	0.00377
6505.42318	0.00377
6503.49450	0.00377
6501.56583	0.00378
6499.63715	0.00379
6497.70848	0.00380
6495.77980	0.00382
6493.85112	0.00383
6491.92245	0.00384
6489.99377	0.00385
6488.06510	0.00386
6486.13642	0.00386
6484.20775	0.00385
6482.27907	0.00386
6480.35039	0.00388
6478.42172	0.00390
6476.49304	0.00391
6474.56437	0.00393
6472.63569	0.00395
6470.70702	0.00395
6468.77834	0.00396
6466.84966	0.00396
6464.92099	0.00396
6462.99231	0.00396
6461.06364	0.00396
6459.13496	0.00397
6457.20629	0.00398
6455.27761	0.00399
6453.34893	0.00400
6451.42026	0.00401
6449.49158	0.00402
6447.56291	0.00403
6445.63423	0.00404
6443.70556	0.00406
6441.77688	0.00405
6439.84820	0.00404
6437.91953	0.00404
6435.99085	0.00406
6434.06218	0.00407
6432.13350	0.00409
6430.20483	0.00409
6428.27615	0.00408
6426.34747	0.00409
6424.41880	0.00412
6422.49012	0.00415
6420.56145	0.00416
6418.63277	0.00416
6416.70410	0.00417
6414.77542	0.00418
6412.84674	0.00418
6410.91807	0.00418
6408.98939	0.00420
6407.06072	0.00422
6405.13204	0.00422
6403.20337	0.00421
6401.27469	0.00420
6399.34601	0.00421
6397.41734	0.00423
6395.48866	0.00425
6393.55999	0.00427
6391.63131	0.00427
6389.70264	0.00428
6387.77396	0.00429
6385.84528	0.00429
6383.91661	0.00429
6381.98793	0.00431
6380.05926	0.00433
6378.13058	0.00434
6376.20191	0.00434
6374.27323	0.00435
6372.34455	0.00437
6370.41588	0.00438
6368.48720	0.00438
6366.55853	0.00437
6364.62985	0.00438
6362.70118	0.00440
6360.77250	0.00442
6358.84382	0.00443
6356.91515	0.00444
6354.98647	0.00445
6353.05780	0.00446
6351.12912	0.00447
6349.20045	0.00447
6347.27177	0.00449
6345.34309	0.00450
6343.41442	0.00449
6341.48574	0.00450
6339.55707	0.00452
6337.62839	0.00454
6335.69972	0.00455
6333.77104	0.00455
6331.84236	0.00456
6329.91369	0.00457
6327.98501	0.00457
6326.05634	0.00458
6324.12766	0.00459
6322.19899	0.00460
6320.27031	0.00460
6318.34163	0.00462
6316.41296	0.00464
6314.48428	0.00465
6312.55561	0.00467
6310.62693	0.00468
6308.69826	0.00468
6306.76958	0.00469
6304.84090	0.00471
6302.91223	0.00472
6300.98355	0.00471
6299.05488	0.00471
6297.12620	0.00472
6295.19753	0.00473
6293.26885	0.00473
6291.34017	0.00473
6289.41150	0.00476
6287.48282	0.00478
6285.55415	0.00479
6283.62547	0.00480
6281.69680	0.00483
6279.76812	0.00485
6277.83944	0.00487
6275.91077	0.00487
6273.98209	0.00487
6272.05342	0.00487
6270.12474	0.00487
6268.19607	0.00486
6266.26739	0.00485
6264.33871	0.00486
6262.41004	0.00489
6260.48136	0.00491
6258.55269	0.00491
6256.62401	0.00491
6254.69534	0.00491
6252.76666	0.00493
6250.83798	0.00496
6248.90931	0.00499
6246.98063	0.00501
6245.05196	0.00500
6243.12328	0.00499
6241.19461	0.00499
6239.26593	0.00501
6237.33725	0.00504
6235.40858	0.00505
6233.47990	0.00505
6231.55123	0.00506
6229.62255	0.00507
6227.69388	0.00508
6225.76520	0.00509
6223.83652	0.00510
6221.90785	0.00511
6219.97917	0.00511
6218.05050	0.00512
6216.12182	0.00515
6214.19315	0.00517
6212.26447	0.00518
6210.33579	0.00518
6208.40712	0.00519
6206.47844	0.00520
6204.54977	0.00521
6202.62109	0.00522
6200.69242	0.00524
6198.76374	0.00525
6196.83506	0.00526
6194.90639	0.00527
6192.97771	0.00528
6191.04904	0.00529
6189.12036	0.00530
6187.19169	0.00531
6185.26301	0.00533
6183.33433	0.00534
6181.40566	0.00537
6179.47698	0.00538
6177.54831	0.00539
6175.61963	0.00538
6173.69096	0.00539
6171.76228	0.00541
6169.83360	0.00542
6167.90493	0.00544
6165.97625	0.00545
6164.04758	0.00546
6162.11890	0.00546
6160.19023	0.00547
6158.26155	0.00549
6156.33287	0.00551
6154.40420	0.00553
6152.47552	0.00555
6150.54685	0.00556
6148.61817	0.00556
6146.68950	0.00556
6144.76082	0.00557
6142.83214	0.00558
6140.90347	0.00559
6138.97479	0.00561
6137.04612	0.00563
6135.11744	0.00565
6133.18877	0.00566
6131.26009	0.00566
6129.33141	0.00566
6127.40274	0.00567
6125.47406	0.00568
6123.54539	0.00571
6121.61671	0.00572
6119.68804	0.00574
6117.75936	0.00576
6115.83068	0.00576
6113.90201	0.00575
6111.97333	0.00575
6110.04466	0.00575
6108.11598	0.00576
6106.18731	0.00578
6104.25863	0.00579
6102.32995	0.00581
6100.40128	0.00583
6098.47260	0.00585
6096.54393	0.00587
6094.61525	0.00588
6092.68658	0.00588
6090.75790	0.00589
6088.82922	0.00591
6086.90055	0.00592
6084.97187	0.00594
6083.04320	0.00596
6081.11452	0.00596
6079.18585	0.00596
6077.25717	0.00597
6075.32849	0.00598
6073.39982	0.00598
6071.47114	0.00599
6069.54247	0.00600
6067.61379	0.00603
6065.68512	0.00606
6063.75644	0.00607
6061.82776	0.00608
6059.89909	0.00610
6057.97041	0.00612
6056.04174	0.00613
6054.11306	0.00612
6052.18439	0.00612
6050.25571	0.00611
6048.32703	0.00612
6046.39836	0.00614
6044.46968	0.00617
6042.54101	0.00620
6040.61233	0.00621
6038.68366	0.00623
6036.75498	0.00624
6034.82630	0.00625
6032.89763	0.00628
6030.96895	0.00631
6029.04028	0.00632
6027.11160	0.00631
6025.18293	0.00633
6023.25425	0.00635
6021.32557	0.00637
6019.39690	0.00640
6017.46822	0.00643
6015.53955	0.00643
6013.61087	0.00643
6011.68220	0.00643
6009.75352	0.00644
6007.82484	0.00645
6005.89617	0.00647
6003.96749	0.00649
6002.03882	0.00651
6000.11014	0.00651
5998.18147	0.00650
5996.25279	0.00651
5994.32411	0.00653
5992.39544	0.00655
5990.46676	0.00657
5988.53809	0.00659
5986.60941	0.00662
5984.68074	0.00665
5982.75206	0.00664
5980.82338	0.00660
5978.89471	0.00659
5976.96603	0.00662
5975.03736	0.00666
5973.10868	0.00668
5971.18001	0.00669
5969.25133	0.00671
5967.32265	0.00673
5965.39398	0.00674
5963.46530	0.00675
5961.53663	0.00678
5959.60795	0.00681
5957.67928	0.00682
5955.75060	0.00683
5953.82192	0.00684
5951.89325	0.00685
5949.96457	0.00685
5948.03590	0.00686
5946.10722	0.00688
5944.17855	0.00689
5942.24987	0.00691
5940.32119	0.00693
5938.39252	0.00694
5936.46384	0.00694
5934.53517	0.00694
5932.60649	0.00695
5930.67782	0.00698
5928.74914	0.00700
5926.82046	0.00702
5924.89179	0.00705
5922.96311	0.00706
5921.03444	0.00708
5919.10576	0.00709
5917.17709	0.00711
5915.24841	0.00711
5913.31973	0.00714
5911.39106	0.00716
5909.46238	0.00717
5907.53371	0.00716
5905.60503	0.00717
5903.67636	0.00719
5901.74768	0.00720
5899.81900	0.00721
5897.89033	0.00721
5895.96165	0.00722
5894.03298	0.00725
5892.10430	0.00728
5890.17563	0.00730
5888.24695	0.00731
5886.31827	0.00734
5884.38960	0.00735
5882.46092	0.00736
5880.53225	0.00738
5878.60357	0.00741
5876.67490	0.00744
5874.74622	0.00745
5872.81755	0.00745
5870.88887	0.00745
5868.96019	0.00745
5867.03152	0.00746
5865.10284	0.00749
5863.17417	0.00751
5861.24549	0.00752
5859.31682	0.00753
5857.38814	0.00754
5855.45946	0.00756
5853.53079	0.00758
5851.60211	0.00760
5849.67344	0.00764
5847.74476	0.00768
5845.81609	0.00769
5843.88741	0.00770
5841.95873	0.00769
5840.03006	0.00768
5838.10138	0.00770
5836.17271	0.00772
5834.24403	0.00774
5832.31536	0.00775
5830.38668	0.00777
5828.45800	0.00780
5826.52933	0.00782
5824.60065	0.00783
5822.67198	0.00784
5820.74330	0.00787
5818.81463	0.00789
5816.88595	0.00789
5814.95727	0.00789
5813.02860	0.00790
5811.09992	0.00791
5809.17125	0.00792
5807.24257	0.00794
5805.31390	0.00797
5803.38522	0.00800
5801.45654	0.00802
5799.52787	0.00804
5797.59919	0.00805
5795.67052	0.00804
5793.74184	0.00804
5791.81317	0.00805
5789.88449	0.00808
5787.95581	0.00812
5786.02714	0.00814
5784.09846	0.00816
5782.16979	0.00818
5780.24111	0.00820
5778.31244	0.00821
5776.38376	0.00822
5774.45508	0.00823
5772.52641	0.00824
5770.59773	0.00826
5768.66906	0.00830
5766.74038	0.00835
5764.81171	0.00837
5762.88303	0.00837
5760.95435	0.00837
5759.02568	0.00837
5757.09700	0.00838
5755.16833	0.00840
5753.23965	0.00842
5751.31098	0.00844
5749.38230	0.00846
5747.45362	0.00849
5745.52495	0.00852
5743.59627	0.00855
5741.66760	0.00857
5739.73892	0.00857
5737.81025	0.00856
5735.88157	0.00855
5733.95289	0.00855
5732.02422	0.00857
5730.09554	0.00859
5728.16687	0.00862
5726.23819	0.00864
5724.30952	0.00866
5722.38084	0.00867
5720.45216	0.00870
5718.52349	0.00874
5716.59481	0.00876
5714.66614	0.00877
5712.73746	0.00877
5710.80879	0.00878
5708.88011	0.00881
5706.95143	0.00885
5705.02276	0.00887
5703.09408	0.00888
5701.16541	0.00888
5699.23673	0.00889
5697.30806	0.00891
5695.37938	0.00894
5693.45070	0.00895
5691.52203	0.00895
5689.59335	0.00897
5687.66468	0.00898
5685.73600	0.00900
5683.80733	0.00903
5681.87865	0.00907
5679.94997	0.00909
5678.02130	0.00911
5676.09262	0.00914
5674.16395	0.00915
5672.23527	0.00916
5670.30660	0.00919
5668.37792	0.00920
5666.44924	0.00919
5664.52057	0.00919
5662.59189	0.00922
5660.66322	0.00926
5658.73454	0.00929
5656.80587	0.00932
5654.87719	0.00934
5652.94851	0.00936
5651.01984	0.00938
5649.09116	0.00940
5647.16249	0.00940
5645.23381	0.00939
5643.30514	0.00940
5641.37646	0.00942
5639.44778	0.00943
5637.51911	0.00947
5635.59043	0.00952
5633.66176	0.00956
5631.73308	0.00957
5629.80441	0.00958
5627.87573	0.00959
5625.94705	0.00959
5624.01838	0.00960
5622.08970	0.00962
5620.16103	0.00964
5618.23235	0.00967
5616.30368	0.00969
5614.37500	0.00971
5612.44632	0.00973
5610.51765	0.00974
5608.58897	0.00973
5606.66030	0.00974
5604.73162	0.00977
5602.80295	0.00979
5600.87427	0.00982
5598.94559	0.00987
5597.01692	0.00989
5595.08824	0.00989
5593.15957	0.00991
5591.23089	0.00995
5589.30222	0.00996
5587.37354	0.00996
5585.44486	0.00997
5583.51619	0.01000
5581.58751	0.01003
5579.65884	0.01004
5577.73016	0.01006
5575.80149	0.01006
5573.87281	0.01007
5571.94413	0.01009
5570.01546	0.01013
5568.08678	0.01016
5566.15811	0.01018
5564.22943	0.01021
5562.30076	0.01022
5560.37208	0.01023
5558.44340	0.01024
5556.51473	0.01027
5554.58605	0.01029
5552.65738	0.01032
5550.72870	0.01034
5548.80003	0.01036
5546.87135	0.01039
5544.94267	0.01040
5543.01400	0.01040
5541.08532	0.01039
5539.15665	0.01041
5537.22797	0.01044
5535.29930	0.01048
5533.37062	0.01051
5531.44194	0.01055
5529.51327	0.01058
5527.58459	0.01060
5525.65592	0.01062
5523.72724	0.01063
5521.79857	0.01064
5519.86989	0.01065
5517.94121	0.01066
5516.01254	0.01068
5514.08386	0.01072
5512.15519	0.01076
5510.22651	0.01077
5508.29784	0.01077
5506.36916	0.01076
5504.44048	0.01076
5502.51181	0.01078
5500.58313	0.01082
5498.65446	0.01085
5496.72578	0.01088
5494.79711	0.01091
5492.86843	0.01094
5490.93975	0.01098
5489.01108	0.01101
5487.08240	0.01104
5485.15373	0.01106
5483.22505	0.01106
5481.29638	0.01107
5479.36770	0.01108
5477.43902	0.01109
5475.51035	0.01111
5473.58167	0.01112
5471.65300	0.01113
5469.72432	0.01115
5467.79565	0.01118
5465.86697	0.01121
5463.93829	0.01123
5462.00962	0.01126
5460.08094	0.01130
5458.15227	0.01132
5456.22359	0.01134
5454.29492	0.01136
5452.36624	0.01136
5450.43756	0.01136
5448.50889	0.01136
5446.58021	0.01139
5444.65154	0.01141
5442.72286	0.01143
5440.79419	0.01145
5438.86551	0.01149
5436.93683	0.01153
5435.00816	0.01154
5433.07948	0.01156
5431.15081	0.01160
5429.22213	0.01163
5427.29346	0.01165
5425.36478	0.01168
5423.43610	0.01169
5421.50743	0.01171
5419.57875	0.01176
5417.65008	0.01181
5415.72140	0.01181
5413.79273	0.01178
5411.86405	0.01178
5409.93537	0.01181
5408.00670	0.01183
5406.07802	0.01186
5404.14935	0.01188
5402.22067	0.01191
5400.29200	0.01194
5398.36332	0.01199
5396.43464	0.01202
5394.50597	0.01203
5392.57729	0.01205
5390.64862	0.01210
5388.71994	0.01212
5386.79127	0.01211
5384.86259	0.01211
5382.93391	0.01213
5381.00524	0.01217
5379.07656	0.01219
5377.14789	0.01219
5375.21921	0.01222
5373.29054	0.01226
5371.36186	0.01228
5369.43318	0.01229
5367.50451	0.01231
5365.57583	0.01234
5363.64716	0.01237
5361.71848	0.01240
5359.78981	0.01244
5357.86113	0.01245
5355.93245	0.01244
5354.00378	0.01246
5352.07510	0.01249
5350.14643	0.01252
5348.21775	0.01254
5346.28908	0.01256
5344.36040	0.01257
5342.43172	0.01260
5340.50305	0.01263
5338.57437	0.01265
5336.64570	0.01266
5334.71702	0.01267
5332.78835	0.01270
5330.85967	0.01273
5328.93099	0.01274
5327.00232	0.01276
5325.07364	0.01279
5323.14497	0.01282
5321.21629	0.01285
5319.28762	0.01288
5317.35894	0.01289
5315.43026	0.01291
5313.50159	0.01294
5311.57291	0.01299
5309.64424	0.01302
5307.71556	0.01303
5305.78689	0.01305
5303.85821	0.01305
5301.92953	0.01305
5300.00086	0.01307
5298.07218	0.01310
5296.14351	0.01314
5294.21483	0.01318
5292.28616	0.01319
5290.35748	0.01319
5288.42880	0.01321
5286.50013	0.01325
5284.57145	0.01330
5282.64278	0.01333
5280.71410	0.01334
5278.78543	0.01336
5276.85675	0.01338
5274.92807	0.01341
5272.99940	0.01344
5271.07072	0.01347
5269.14205	0.01351
5267.21337	0.01353
5265.28470	0.01354
5263.35602	0.01355
5261.42734	0.01356
5259.49867	0.01359
5257.56999	0.01362
5255.64132	0.01366
5253.71264	0.01368
5251.78397	0.01370
5249.85529	0.01371
5247.92661	0.01372
5245.99794	0.01373
5244.06926	0.01376
5242.14059	0.01380
5240.21191	0.01384
5238.28324	0.01387
5236.35456	0.01390
5234.42588	0.01391
5232.49721	0.01392
5230.56853	0.01393
5228.63986	0.01395
5226.71118	0.01397
5224.78251	0.01399
5222.85383	0.01403
5220.92515	0.01407
5218.99648	0.01410
5217.06780	0.01412
5215.13913	0.01416
5213.21045	0.01419
5211.28178	0.01421
5209.35310	0.01422
5207.42442	0.01424
5205.49575	0.01427
5203.56707	0.01430
5201.63840	0.01433
5199.70972	0.01435
5197.78105	0.01437
5195.85237	0.01438
5193.92369	0.01442
5191.99502	0.01444
5190.06634	0.01444
5188.13767	0.01445
5186.20899	0.01447
5184.28032	0.01452
5182.35164	0.01458
5180.42296	0.01462
5178.49429	0.01465
5176.56561	0.01466
5174.63694	0.01466
5172.70826	0.01466
5170.77959	0.01468
5168.85091	0.01472
5166.92223	0.01474
5164.99356	0.01477
5163.06488	0.01480
5161.13621	0.01482
5159.20753	0.01484
5157.27886	0.01487
5155.35018	0.01489
5153.42150	0.01491
5151.49283	0.01496
5149.56415	0.01500
5147.63548	0.01503
5145.70680	0.01505
5143.77813	0.01508
5141.84945	0.01510
5139.92077	0.01510
5137.99210	0.01512
5136.06342	0.01515
5134.13475	0.01517
5132.20607	0.01519
5130.27740	0.01523
5128.34872	0.01526
5126.42004	0.01528
5124.49137	0.01529
5122.56269	0.01530
5120.63402	0.01532
5118.70534	0.01536
5116.77667	0.01540
5114.84799	0.01544
5112.91931	0.01549
5110.99064	0.01554
5109.06196	0.01556
5107.13329	0.01556
5105.20461	0.01556
5103.27594	0.01558
5101.34726	0.01561
5099.41858	0.01564
5097.48991	0.01567
5095.56123	0.01570
5093.63256	0.01573
5091.70388	0.01576
5089.77521	0.01577
5087.84653	0.01578
5085.91785	0.01579
5083.98918	0.01580
5082.06050	0.01584
5080.13183	0.01589
5078.20315	0.01592
5076.27448	0.01594
5074.34580	0.01598
5072.41712	0.01601
5070.48845	0.01602
5068.55977	0.01604
5066.63110	0.01609
5064.70242	0.01614
5062.77375	0.01617
5060.84507	0.01618
5058.91639	0.01618
5056.98772	0.01618
5055.05904	0.01618
5053.13037	0.01621
5051.20169	0.01627
5049.27302	0.01634
5047.34434	0.01638
5045.41566	0.01641
5043.48699	0.01644
5041.55831	0.01646
5039.62964	0.01648
5037.70096	0.01649
5035.77229	0.01651
5033.84361	0.01653
5031.91493	0.01655
5029.98626	0.01658
5028.05758	0.01662
5026.12891	0.01665
5024.20023	0.01666
5022.27156	0.01666
5020.34288	0.01667
5018.41420	0.01670
5016.48553	0.01675
5014.55685	0.01679
5012.62818	0.01681
5010.69950	0.01685
5008.77083	0.01690
5006.84215	0.01696
5004.91347	0.01699
5002.98480	0.01699
5001.05612	0.01699
4999.12745	0.01701
4997.19877	0.01704
4995.27010	0.01707
4993.34142	0.01711
4991.41274	0.01715
4989.48407	0.01718
4987.55539	0.01720
4985.62672	0.01724
4983.69804	0.01728
4981.76937	0.01729
4979.84069	0.01729
4977.91201	0.01731
4975.98334	0.01735
4974.05466	0.01738
4972.12599	0.01740
4970.19731	0.01742
4968.26864	0.01744
4966.33996	0.01747
4964.41128	0.01749
4962.48261	0.01753
4960.55393	0.01757
4958.62526	0.01761
4956.69658	0.01764
4954.76791	0.01766
4952.83923	0.01768
4950.91055	0.01770
4948.98188	0.01772
4947.05320	0.01775
4945.12453	0.01777
4943.19585	0.01780
4941.26718	0.01786
4939.33850	0.01790
4937.40982	0.01792
4935.48115	0.01795
4933.55247	0.01797
4931.62380	0.01799
4929.69512	0.01802
4927.76645	0.01807
4925.83777	0.01811
4923.90909	0.01815
4921.98042	0.01820
4920.05174	0.01822
4918.12307	0.01822
4916.19439	0.01824
4914.26572	0.01827
4912.33704	0.01830
4910.40836	0.01831
4908.47969	0.01833
4906.55101	0.01836
4904.62234	0.01839
4902.69366	0.01842
4900.76499	0.01845
4898.83631	0.01849
4896.90763	0.01852
4894.97896	0.01853
4893.05028	0.01854
4891.12161	0.01857
4889.19293	0.01861
4887.26426	0.01866
4885.33558	0.01868
4883.40690	0.01868
4881.47823	0.01870
4879.54955	0.01875
4877.62088	0.01879
4875.69220	0.01883
4873.76353	0.01887
4871.83485	0.01890
4869.90617	0.01892
4867.97750	0.01893
4866.04882	0.01894
4864.12015	0.01899
4862.19147	0.01905
4860.26280	0.01909
4858.33412	0.01909
4856.40544	0.01911
4854.47677	0.01916
4852.54809	0.01921
4850.61942	0.01924
4848.69074	0.01926
4846.76207	0.01929
4844.83339	0.01932
4842.90471	0.01935
4840.97604	0.01938
4839.04736	0.01942
4837.11869	0.01945
4835.19001	0.01945
4833.26134	0.01947
4831.33266	0.01951
4829.40398	0.01955
4827.47531	0.01959
4825.54663	0.01962
4823.61796	0.01965
4821.68928	0.01967
4819.76061	0.01968
4817.83193	0.01970
4815.90325	0.01975
4813.97458	0.01982
4812.04590	0.01987
4810.11723	0.01989
4808.18855	0.01991
4806.25988	0.01994
4804.33120	0.01997
4802.40252	0.02000
4800.47385	0.02003
4798.54517	0.02006
4796.61650	0.02009
4794.68782	0.02014
4792.75915	0.02018
4790.83047	0.02020
4788.90179	0.02020
4786.97312	0.02022
4785.04444	0.02026
4783.11577	0.02029
4781.18709	0.02034
4779.25842	0.02037
4777.32974	0.02039
4775.40106	0.02042
4773.47239	0.02047
4771.54371	0.02053
4769.61504	0.02056
4767.68636	0.02058
4765.75769	0.02060
4763.82901	0.02064
4761.90033	0.02066
4759.97166	0.02069
4758.04298	0.02075
4756.11431	0.02079
4754.18563	0.02083
4752.25696	0.02085
4750.32828	0.02087
4748.39960	0.02090
4746.47093	0.02094
4744.54225	0.02097
4742.61358	0.02099
4740.68490	0.02103
4738.75623	0.02106
4736.82755	0.02109
4734.89887	0.02112
4732.97020	0.02116
4731.04152	0.02121
4729.11285	0.02123
4727.18417	0.02124
4725.25550	0.02126
4723.32682	0.02129
4721.39814	0.02131
4719.46947	0.02134
4717.54079	0.02139
4715.61212	0.02145
4713.68344	0.02151
4711.75477	0.02154
4709.82609	0.02156
4707.89741	0.02160
4705.96874	0.02165
4704.04006	0.02169
4702.11139	0.02172
4700.18271	0.02174
4698.25404	0.02178
4696.32536	0.02183
4694.39668	0.02184
4692.46801	0.02184
4690.53933	0.02189
4688.61066	0.02195
4686.68198	0.02197
4684.75331	0.02199
4682.82463	0.02204
4680.89595	0.02209
4678.96728	0.02211
4677.03860	0.02213
4675.10993	0.02217
4673.18125	0.02222
4671.25258	0.02226
4669.32390	0.02230
4667.39522	0.02236
4665.46655	0.02240
4663.53787	0.02243
4661.60920	0.02245
4659.68052	0.02247
4657.75185	0.02250
4655.82317	0.02253
4653.89449	0.02254
4651.96582	0.02257
4650.03714	0.02262
4648.10847	0.02269
4646.17979	0.02273
4644.25112	0.02275
4642.32244	0.02279
4640.39376	0.02285
4638.46509	0.02289
4636.53641	0.02292
4634.60774	0.02296
4632.67906	0.02299
4630.75039	0.02303
4628.82171	0.02306
4626.89303	0.02310
4624.96436	0.02312
4623.03568	0.02314
4621.10701	0.02318
4619.17833	0.02322
4617.24966	0.02326
4615.32098	0.02328
4613.39230	0.02333
4611.46363	0.02339
4609.53495	0.02343
4607.60628	0.02346
4605.67760	0.02349
4603.74893	0.02353
4601.82025	0.02359
4599.89157	0.02365
4597.96290	0.02370
4596.03422	0.02372
4594.10555	0.02374
4592.17687	0.02376
4590.24820	0.02380
4588.31952	0.02386
4586.39084	0.02392
4584.46217	0.02395
4582.53349	0.02397
4580.60482	0.02400
4578.67614	0.02405
4576.74747	0.02411
4574.81879	0.02413
4572.89011	0.02417
4570.96144	0.02422
4569.03276	0.02426
4567.10409	0.02428
4565.17541	0.02432
4563.24674	0.02436
4561.31806	0.02441
4559.38938	0.02444
4557.46071	0.02447
4555.53203	0.02450
4553.60336	0.02453
4551.67468	0.02457
4549.74601	0.02464
4547.81733	0.02470
4545.88865	0.02473
4543.95998	0.02477
4542.03130	0.02481
4540.10263	0.02485
4538.17395	0.02487
4536.24528	0.02492
4534.31660	0.02498
4532.38792	0.02502
4530.45925	0.02505
4528.53057	0.02509
4526.60190	0.02513
4524.67322	0.02518
4522.74455	0.02526
4520.81587	0.02532
4518.88719	0.02532
4516.95852	0.02531
4515.02984	0.02535
4513.10117	0.02540
4511.17249	0.02546
4509.24382	0.02553
4507.31514	0.02558
4505.38646	0.02561
4503.45779	0.02564
4501.52911	0.02568
4499.60044	0.02571
4497.67176	0.02574
4495.74309	0.02579
4493.81441	0.02587
4491.88573	0.02594
4489.95706	0.02597
4488.02838	0.02601
4486.09971	0.02607
4484.17103	0.02612
4482.24236	0.02617
4480.31368	0.02622
4478.38500	0.02626
4476.45633	0.02630
4474.52765	0.02634
4472.59898	0.02638
4470.67030	0.02640
4468.74163	0.02644
4466.81295	0.02649
4464.88427	0.02654
4462.95560	0.02657
4461.02692	0.02660
4459.09825	0.02665
4457.16957	0.02670
4455.24090	0.02676
4453.31222	0.02681
4451.38354	0.02685
4449.45487	0.02688
4447.52619	0.02692
4445.59752	0.02697
4443.66884	0.02703
4441.74017	0.02707
4439.81149	0.02713
4437.88281	0.02721
4435.95414	0.02726
4434.02546	0.02729
4432.09679	0.02733
4430.16811	0.02738
4428.23944	0.02744
4426.31076	0.02748
4424.38208	0.02754
4422.45341	0.02759
4420.52473	0.02764
4418.59606	0.02766
4416.66738	0.02770
4414.73871	0.02774
4412.81003	0.02777
4410.88135	0.02782
4408.95268	0.02789
4407.02400	0.02796
4405.09533	0.02800
4403.16665	0.02803
4401.23798	0.02806
4399.30930	0.02812
4397.38062	0.02819
4395.45195	0.02824
4393.52327	0.02828
4391.59460	0.02833
4389.66592	0.02839
4387.73725	0.02845
4385.80857	0.02852
4383.87989	0.02857
4381.95122	0.02860
4380.02254	0.02862
4378.09387	0.02866
4376.16519	0.02873
4374.23652	0.02880
4372.30784	0.02886
4370.37916	0.02892
4368.45049	0.02896
4366.52181	0.02899
4364.59314	0.02903
4362.66446	0.02909
4360.73579	0.02914
4358.80711	0.02918
4356.87843	0.02921
4354.94976	0.02925
4353.02108	0.02931
4351.09241	0.02936
4349.16373	0.02942
4347.23506	0.02950
4345.30638	0.02958
4343.37770	0.02963
4341.44903	0.02967
4339.52035	0.02971
4337.59168	0.02976
4335.66300	0.02982
4333.73433	0.02987
4331.80565	0.02991
4329.87697	0.02996
4327.94830	0.03001
4326.01962	0.03005
4324.09095	0.03011
4322.16227	0.03018
4320.23360	0.03023
4318.30492	0.03029
4316.37624	0.03035
4314.44757	0.03040
4312.51889	0.03045
4310.59022	0.03050
4308.66154	0.03055
4306.73287	0.03060
4304.80419	0.03065
4302.87551	0.03071
4300.94684	0.03076
4299.01816	0.03082
4297.08949	0.03088
4295.16081	0.03095
4293.23214	0.03103
4291.30346	0.03110
4289.37478	0.03116
4287.44611	0.03121
4285.51743	0.03126
4283.58876	0.03132
4281.66008	0.03141
4279.73141	0.03148
4277.80273	0.03153
4275.87405	0.03158
4273.94538	0.03163
4272.01670	0.03167
4270.08803	0.03173
4268.15935	0.03180
4266.23068	0.03183
4264.30200	0.03186
4262.37332	0.03190
4260.44465	0.03198
4258.51597	0.03207
4256.58730	0.03213
4254.65862	0.03217
4252.72995	0.03222
4250.80127	0.03231
4248.87259	0.03239
4246.94392	0.03243
4245.01524	0.03245
4243.08657	0.03251
4241.15789	0.03260
4239.22922	0.03266
4237.30054	0.03270
4235.37186	0.03276
4233.44319	0.03281
4231.51451	0.03285
4229.58584	0.03290
4227.65716	0.03296
4225.72849	0.03303
4223.79981	0.03312
4221.87113	0.03321
4219.94246	0.03328
4218.01378	0.03332
4216.08511	0.03338
4214.15643	0.03345
4212.22776	0.03353
4210.29908	0.03359
4208.37040	0.03365
4206.44173	0.03372
4204.51305	0.03376
4202.58438	0.03380
4200.65570	0.03385
4198.72703	0.03392
4196.79835	0.03398
4194.86968	0.03405
4192.94100	0.03412
4191.01232	0.03419
4189.08365	0.03427
4187.15497	0.03433
4185.22630	0.03438
4183.29762	0.03443
4181.36895	0.03447
4179.44027	0.03454
4177.51159	0.03462
4175.58292	0.03469
4173.65424	0.03476
4171.72557	0.03483
4169.79689	0.03489
4167.86822	0.03495
4165.93954	0.03501
4164.01086	0.03507
4162.08219	0.03512
4160.15351	0.03517
4158.22484	0.03524
4156.29616	0.03531
4154.36749	0.03539
4152.43881	0.03546
4150.51013	0.03553
4148.58146	0.03561
4146.65278	0.03569
4144.72411	0.03576
4142.79543	0.03581
4140.86676	0.03587
4138.93808	0.03597
4137.00940	0.03606
4135.08073	0.03611
4133.15205	0.03616
4131.22338	0.03622
4129.29470	0.03630
4127.36603	0.03637
4125.43735	0.03644
4123.50867	0.03648
4121.58000	0.03652
4119.65132	0.03658
4117.72265	0.03666
4115.79397	0.03674
4113.86530	0.03683
4111.93662	0.03691
4110.00794	0.03700
4108.07927	0.03709
4106.15059	0.03716
4104.22192	0.03722
4102.29324	0.03727
4100.36457	0.03732
4098.43589	0.03741
4096.50721	0.03749
4094.57854	0.03756
4092.64986	0.03760
4090.72119	0.03764
4088.79251	0.03772
4086.86384	0.03782
4084.93516	0.03791
4083.00648	0.03798
4081.07781	0.03803
4079.14913	0.03807
4077.22046	0.03813
4075.29178	0.03820
4073.36311	0.03829
4071.43443	0.03838
4069.50575	0.03847
4067.57708	0.03856
4065.64840	0.03865
4063.71973	0.03871
4061.79105	0.03879
4059.86238	0.03887
4057.93370	0.03893
4056.00502	0.03898
4054.07635	0.03905
4052.14767	0.03913
4050.21900	0.03920
4048.29032	0.03927
4046.36165	0.03934
4044.43297	0.03944
4042.50429	0.03954
4040.57562	0.03961
4038.64694	0.03967
4036.71827	0.03976
4034.78959	0.03985
4032.86092	0.03991
4030.93224	0.03996
4029.00356	0.04002
4027.07489	0.04012
4025.14621	0.04020
4023.21754	0.04026
4021.28886	0.04032
4019.36019	0.04040
4017.43151	0.04049
4015.50283	0.04056
4013.57416	0.04063
4011.64548	0.04072
4009.71681	0.04080
4007.78813	0.04087
4005.85946	0.04095
4003.93078	0.04104
4002.00210	0.04110
4000.07343	0.04118
3998.14475	0.04126
3996.21608	0.04132
3994.28740	0.04138
3992.35873	0.04146
3990.43005	0.04156
3988.50137	0.04166
3986.57270	0.04175
3984.64402	0.04183
3982.71535	0.04191
3980.78667	0.04199
3978.85800	0.04206
3976.92932	0.04213
3975.00064	0.04219
3973.07197	0.04225
3971.14329	0.04234
3969.21462	0.04243
3967.28594	0.04250
3965.35727	0.04258
3963.42859	0.04268
3961.49991	0.04278
3959.57124	0.04289
3957.64256	0.04298
3955.71389	0.04306
3953.78521	0.04312
3951.85654	0.04315
3949.92786	0.04319
3947.99918	0.04326
3946.07051	0.04334
3944.14183	0.04344
3942.21316	0.04355
3940.28448	0.04366
3938.35581	0.04375
3936.42713	0.04381
3934.49845	0.04384
3932.56978	0.04388
3930.64110	0.04396
3928.71243	0.04408
3926.78375	0.04418
3924.85508	0.04427
3922.92640	0.04434
3920.99772	0.04438
3919.06905	0.04441
3917.14037	0.04449
3915.21170	0.04462
3913.28302	0.04475
3911.35435	0.04486
3909.42567	0.04494
3907.49699	0.04499
3905.56832	0.04497
3903.63964	0.04495
3901.71097	0.04503
3899.78229	0.04522
3897.85362	0.04542
3895.92494	0.04555
3893.99626	0.04556
3892.06759	0.04558
3890.13891	0.04568
3888.21024	0.04577
3886.28156	0.04579
3884.35289	0.04585
3882.42421	0.04595
3880.49553	0.04605
3878.56686	0.04619
3876.63818	0.04630
3874.70951	0.04637
3872.78083	0.04640
3870.85216	0.04642
3868.92348	0.04648
3866.99480	0.04659
3865.06613	0.04668
3863.13745	0.04680
3861.20878	0.04698
3859.28010	0.04711
3857.35143	0.04707
3855.42275	0.04690
3853.49407	0.04686
3851.56540	0.04714
3849.63672	0.04747
3847.70805	0.04767
3845.77937	0.04776
3843.85070	0.04780
3841.92202	0.04782
3839.99334	0.04783
3838.06467	0.04787
3836.13599	0.04800
3834.20732	0.04816
3832.27864	0.04830
3830.34997	0.04844
3828.42129	0.04856
3826.49261	0.04863
3824.56394	0.04866
3822.63526	0.04866
3820.70659	0.04873
3818.77791	0.04889
3816.84924	0.04902
3814.92056	0.04916
3812.99188	0.04934
3811.06321	0.04946
3809.13453	0.04946
3807.20586	0.04946
3805.27718	0.04953
3803.34851	0.04960
3801.41983	0.04968
3799.49115	0.04984
3797.56248	0.05000
3795.63380	0.05015
3793.70513	0.05033
3791.77645	0.05046
3789.84778	0.05052
3787.91910	0.05057
3785.99042	0.05065
3784.06175	0.05073
3782.13307	0.05080
3780.20440	0.05086
3778.27572	0.05097
3776.34705	0.05112
3774.41837	0.05122
3772.48969	0.05126
3770.56102	0.05129
3768.63234	0.05137
3766.70367	0.05148
3764.77499	0.05159
3762.84632	0.05167
3760.91764	0.05172
3758.98896	0.05181
3757.06029	0.05192
3755.13161	0.05195
3753.20294	0.05189
3751.27426	0.05187
3749.34559	0.05197
3747.41691	0.05206
3745.48823	0.05204
3743.55956	0.05218
3741.63088	0.05251
3739.70221	0.05271
3737.77353	0.05269
3735.84486	0.05267
3733.91618	0.05279
3731.98750	0.05302
3730.05883	0.05323
3728.13015	0.05333
3726.20148	0.05340
3724.27280	0.05350
3722.34413	0.05363
3720.41545	0.05374
3718.48677	0.05385
3716.55810	0.05394
3714.62942	0.05395
3712.70075	0.05394
3710.77207	0.05403
3708.84340	0.05422
3706.91472	0.05439
3704.98604	0.05450
3703.05737	0.05455
3701.12869	0.05464
3699.20002	0.05478
3697.27134	0.05491
3695.34267	0.05499
3693.41399	0.05501
3691.48531	0.05499
3689.55664	0.05503
3687.62796	0.05519
3685.69929	0.05540
3683.77061	0.05555
3681.84194	0.05565
3679.91326	0.05569
3677.98458	0.05563
3676.05591	0.05559
3674.12723	0.05570
3672.19856	0.05584
3670.26988	0.05594
3668.34121	0.05612
3666.41253	0.05635
3664.48385	0.05650
3662.55518	0.05659
3660.62650	0.05666
3658.69783	0.05669
3656.76915	0.05670
3654.84048	0.05676
3652.91180	0.05676
3650.98312	0.05664
3649.05445	0.05657
3647.12577	0.05674
3645.19710	0.05704
3643.26842	0.05730
3641.33975	0.05746
3639.41107	0.05757
3637.48239	0.05767
3635.55372	0.05775
3633.62504	0.05777
3631.69637	0.05770
3629.76769	0.05763
3627.83902	0.05777
3625.91034	0.05805
3623.98166	0.05822
3622.05299	0.05823
3620.12431	0.05821
3618.19564	0.05825
3616.26696	0.05835
3614.33829	0.05845
3612.40961	0.05851
3610.48093	0.05856
3608.55226	0.05863
3606.62358	0.05878
3604.69491	0.05894
3602.76623	0.05903
3600.83756	0.05908
3598.90888	0.05917
3596.98020	0.05925
3595.05153	0.05930
3593.12285	0.05935
3591.19418	0.05939
3589.26550	0.05937
3587.33683	0.05940
3585.40815	0.05956
3583.47947	0.05977
3581.55080	0.05990
3579.62212	0.05998
3577.69345	0.06006
3575.76477	0.06014
3573.83610	0.06021
3571.90742	0.06027
3569.97874	0.06027
3568.05007	0.06025
3566.12139	0.06031
3564.19272	0.06045
3562.26404	0.06059
3560.33537	0.06072
3558.40669	0.06085
3556.47801	0.06095
3554.54934	0.06101
3552.62066	0.06104
3550.69199	0.06109
3548.76331	0.06114
3546.83464	0.06118
3544.90596	0.06125
3542.97728	0.06137
3541.04861	0.06147
3539.11993	0.06156
3537.19126	0.06163
3535.26258	0.06168
3533.33391	0.06171
3531.40523	0.06173
3529.47655	0.06174
3527.54788	0.06176
3525.61920	0.06179
3523.69053	0.06184
3521.76185	0.06192
3519.83318	0.06198
3517.90450	0.06203
3515.97582	0.06208
3514.04715	0.06215
3512.11847	0.06218
3510.18980	0.06220
3508.26112	0.06224
3506.33245	0.06227
3504.40377	0.06228
3502.47509	0.06231
3500.54642	0.06238
3498.61774	0.06244
3496.68907	0.06246
3494.76039	0.06247
3492.83172	0.06250
3490.90304	0.06253
3488.97436	0.06256
3487.04569	0.06259
3485.11701	0.06262
3483.18834	0.06267
3481.25966	0.06272
3479.33099	0.06280
3477.40231	0.06287
3475.47363	0.06294
3473.54496	0.06302
3471.61628	0.06313
3469.68761	0.06324
3467.75893	0.06333
3465.83026	0.06341
3463.90158	0.06349
3461.97290	0.06360
3460.04423	0.06374
3458.11555	0.06386
3456.18688	0.06395
3454.25820	0.06403
3452.32953	0.06411
3450.40085	0.06419
3448.47217	0.06427
3446.54350	0.06436
3444.61482	0.06447
3442.68615	0.06460
3440.75747	0.06475
3438.82880	0.06491
3436.90012	0.06507
3434.97144	0.06522
3433.04277	0.06539
3431.11409	0.06559
3429.18542	0.06580
3427.25674	0.06603
3425.32807	0.06626
3423.39939	0.06647
3421.47071	0.06665
3419.54204	0.06682
3417.61336	0.06698
3415.68469	0.06711
3413.75601	0.06724
3411.82734	0.06741
3409.89866	0.06759
3407.96998	0.06773
3406.04131	0.06784
3404.11263	0.06795
3402.18396	0.06811
3400.25528	0.06828
3398.32661	0.06840
3396.39793	0.06850
3394.46925	0.06865
3392.54058	0.06881
3390.61190	0.06896
3388.68323	0.06908
3386.75455	0.06921
3384.82588	0.06936
3382.89720	0.06952
3380.96852	0.06966
3379.03985	0.06977
3377.11117	0.06989
3375.18250	0.07004
3373.25382	0.07019
3371.32515	0.07033
3369.39647	0.07046
3367.46779	0.07056
3365.53912	0.07067
3363.61044	0.07080
3361.68177	0.07094
3359.75309	0.07107
3357.82442	0.07119
3355.89574	0.07132
3353.96706	0.07145
3352.03839	0.07157
3350.10971	0.07169
3348.18104	0.07182
3346.25236	0.07194
3344.32369	0.07203
3342.39501	0.07215
3340.46633	0.07230
3338.53766	0.07245
3336.60898	0.07256
3334.68031	0.07268
3332.75163	0.07281
3330.82296	0.07293
3328.89428	0.07305
3326.96560	0.07317
3325.03693	0.07329
3323.10825	0.07345
3321.17958	0.07361
3319.25090	0.07376
3317.32223	0.07390
3315.39355	0.07403
3313.46487	0.07416
3311.53620	0.07430
3309.60752	0.07439
3307.67885	0.07447
3305.75017	0.07461
3303.82150	0.07476
3301.89282	0.07489
3299.96414	0.07503
3298.03547	0.07519
3296.10679	0.07532
3294.17812	0.07543
3292.24944	0.07557
3290.32077	0.07572
3288.39209	0.07589
3286.46341	0.07605
3284.53474	0.07620
3282.60606	0.07635
3280.67739	0.07648
3278.74871	0.07660
3276.82004	0.07671
3274.89136	0.07683
3272.96268	0.07696
3271.03401	0.07710
3269.10533	0.07724
3267.17666	0.07738
3265.24798	0.07751
3263.31931	0.07766
3261.39063	0.07783
3259.46195	0.07799
3257.53328	0.07811
3255.60460	0.07822
3253.67593	0.07836
3251.74725	0.07852
3249.81858	0.07870
3247.88990	0.07885
3245.96122	0.07898
3244.03255	0.07910
3242.10387	0.07924
3240.17520	0.07936
3238.24652	0.07947
3236.31785	0.07959
3234.38917	0.07971
3232.46049	0.07984
3230.53182	0.07999
3228.60314	0.08016
3226.67447	0.08033
3224.74579	0.08048
3222.81712	0.08063
3220.88844	0.08077
3218.95976	0.08091
3217.03109	0.08103
3215.10241	0.08116
3213.17374	0.08131
3211.24506	0.08144
3209.31639	0.08154
3207.38771	0.08167
3205.45903	0.08183
3203.53036	0.08198
3201.60168	0.08214
3199.67301	0.08226
3197.74433	0.08236
3195.81566	0.08249
3193.88698	0.08270
3191.95830	0.08293
3190.02963	0.08311
3188.10095	0.08324
3186.17228	0.08335
3184.24360	0.08349
3182.31493	0.08363
3180.38625	0.08379
3178.45757	0.08394
3176.52890	0.08409
3174.60022	0.08423
3172.67155	0.08439
3170.74287	0.08454
3168.81420	0.08466
3166.88552	0.08475
3164.95684	0.08486
3163.02817	0.08500
3161.09949	0.08518
3159.17082	0.08536
3157.24214	0.08555
3155.31347	0.08570
3153.38479	0.08583
3151.45611	0.08595
3149.52744	0.08608
3147.59876	0.08621
3145.67009	0.08637
3143.74141	0.08653
3141.81274	0.08669
3139.88406	0.08684
3137.95538	0.08697
3136.02671	0.08710
3134.09803	0.08724
3132.16936	0.08739
3130.24068	0.08754
3128.31201	0.08769
3126.38333	0.08783
3124.45465	0.08797
3122.52598	0.08812
3120.59730	0.08826
3118.66863	0.08837
3116.73995	0.08849
3114.81128	0.08866
3112.88260	0.08883
3110.95392	0.08898
3109.02525	0.08912
3107.09657	0.08927
3105.16790	0.08943
3103.23922	0.08958
3101.31055	0.08972
3099.38187	0.08985
3097.45319	0.08998
3095.52452	0.09012
3093.59584	0.09027
3091.66717	0.09042
3089.73849	0.09056
3087.80982	0.09070
3085.88114	0.09084
3083.95246	0.09100
3082.02379	0.09116
3080.09511	0.09129
3078.16644	0.09141
3076.23776	0.09158
3074.30909	0.09177
3072.38041	0.09195
3070.45173	0.09209
3068.52306	0.09220
3066.59438	0.09230
3064.66571	0.09241
3062.73703	0.09255
3060.80836	0.09271
3058.87968	0.09286
3056.95100	0.09300
3055.02233	0.09313
3053.09365	0.09327
3051.16498	0.09340
3049.23630	0.09354
3047.30763	0.09370
3045.37895	0.09385
3043.45027	0.09400
3041.52160	0.09415
3039.59292	0.09431
3037.66425	0.09447
3035.73557	0.09462
3033.80690	0.09474
3031.87822	0.09487
3029.94954	0.09502
3028.02087	0.09515
3026.09219	0.09527
3024.16352	0.09539
3022.23484	0.09554
3020.30617	0.09569
3018.37749	0.09583
3016.44881	0.09595
3014.52014	0.09609
3012.59146	0.09626
3010.66279	0.09641
3008.73411	0.09655
3006.80544	0.09670
3004.87676	0.09688
3002.94808	0.09704
3001.01941	0.09719
2999.09073	0.09731
2997.16206	0.09743
2995.23338	0.09756
2993.30471	0.09770
2991.37603	0.09783
2989.44735	0.09795
2987.51868	0.09804
2985.59000	0.09812
2983.66133	0.09819
2981.73265	0.09827
2979.80398	0.09834
2977.87530	0.09842
2975.94662	0.09848
2974.01795	0.09851
2972.08927	0.09852
2970.16060	0.09851
2968.23192	0.09849
2966.30325	0.09849
2964.37457	0.09856
2962.44589	0.09867
2960.51722	0.09878
2958.58854	0.09892
2956.65987	0.09910
2954.73119	0.09929
2952.80252	0.09948
2950.87384	0.09965
2948.94516	0.09981
2947.01649	0.09994
2945.08781	0.10004
2943.15914	0.10011
2941.23046	0.10016
2939.30179	0.10020
2937.37311	0.10023
2935.44443	0.10025
2933.51576	0.10023
2931.58708	0.10016
2929.65841	0.10011
2927.72973	0.10009
2925.80106	0.10009
2923.87238	0.10008
2921.94370	0.10008
2920.01503	0.10014
2918.08635	0.10030
2916.15768	0.10061
2914.22900	0.10106
2912.30033	0.10155
2910.37165	0.10199
2908.44297	0.10233
2906.51430	0.10261
2904.58562	0.10287
2902.65695	0.10311
2900.72827	0.10335
2898.79960	0.10359
2896.87092	0.10380
2894.94224	0.10402
2893.01357	0.10425
2891.08489	0.10447
2889.15622	0.10464
2887.22754	0.10480
2885.29887	0.10499
2883.37019	0.10518
2881.44151	0.10532
2879.51284	0.10545
2877.58416	0.10559
2875.65549	0.10572
2873.72681	0.10582
2871.79814	0.10595
2869.86946	0.10609
2867.94078	0.10624
2866.01211	0.10636
2864.08343	0.10646
2862.15476	0.10652
2860.22608	0.10658
2858.29741	0.10663
2856.36873	0.10663
2854.44005	0.10658
2852.51138	0.10654
2850.58270	0.10662
2848.65403	0.10688
2846.72535	0.10734
2844.79668	0.10785
2842.86800	0.10829
2840.93932	0.10864
2839.01065	0.10893
2837.08197	0.10920
2835.15330	0.10942
2833.22462	0.10958
2831.29595	0.10978
2829.36727	0.10999
2827.43859	0.11018
2825.50992	0.11033
2823.58124	0.11047
2821.65257	0.11062
2819.72389	0.11078
2817.79522	0.11098
2815.86654	0.11117
2813.93786	0.11131
2812.00919	0.11140
2810.08051	0.11153
2808.15184	0.11171
2806.22316	0.11188
2804.29449	0.11203
2802.36581	0.11220
2800.43713	0.11236
2798.50846	0.11253
2796.57978	0.11271
2794.65111	0.11283
2792.72243	0.11293
2790.79376	0.11307
2788.86508	0.11326
2786.93640	0.11343
2785.00773	0.11357
2783.07905	0.11374
2781.15038	0.11393
2779.22170	0.11409
2777.29303	0.11424
2775.36435	0.11440
2773.43567	0.11456
2771.50700	0.11470
2769.57832	0.11485
2767.64965	0.11503
2765.72097	0.11521
2763.79230	0.11535
2761.86362	0.11551
2759.93494	0.11569
2758.00627	0.11585
2756.07759	0.11600
2754.14892	0.11615
2752.22024	0.11627
2750.29157	0.11638
2748.36289	0.11651
2746.43421	0.11670
2744.50554	0.11688
2742.57686	0.11702
2740.64819	0.11717
2738.71951	0.11734
2736.79084	0.11749
2734.86216	0.11763
2732.93348	0.11777
2731.00481	0.11792
2729.07613	0.11807
2727.14746	0.11821
2725.21878	0.11834
2723.29011	0.11849
2721.36143	0.11869
2719.43275	0.11888
2717.50408	0.11904
2715.57540	0.11917
2713.64673	0.11930
2711.71805	0.11943
2709.78938	0.11958
2707.86070	0.11974
2705.93202	0.11991
2704.00335	0.12008
2702.07467	0.12019
2700.14600	0.12029
2698.21732	0.12043
2696.28865	0.12061
2694.35997	0.12077
2692.43129	0.12093
2690.50262	0.12108
2688.57394	0.12120
2686.64527	0.12132
2684.71659	0.12149
2682.78792	0.12167
2680.85924	0.12183
2678.93056	0.12197
2677.00189	0.12212
2675.07321	0.12228
2673.14454	0.12244
2671.21586	0.12258
2669.28719	0.12274
2667.35851	0.12288
2665.42983	0.12297
2663.50116	0.12308
2661.57248	0.12324
2659.64381	0.12341
2657.71513	0.12359
2655.78646	0.12375
2653.85778	0.12391
2651.92910	0.12406
2650.00043	0.12425
2648.07175	0.12443
2646.14308	0.12456
2644.21440	0.12467
2642.28573	0.12482
2640.35705	0.12500
2638.42837	0.12516
2636.49970	0.12529
2634.57102	0.12544
2632.64235	0.12559
2630.71367	0.12575
2628.78500	0.12594
2626.85632	0.12611
2624.92764	0.12626
2622.99897	0.12642
2621.07029	0.12661
2619.14162	0.12681
2617.21294	0.12700
2615.28427	0.12719
2613.35559	0.12735
2611.42691	0.12750
2609.49824	0.12766
2607.56956	0.12782
2605.64089	0.12799
2603.71221	0.12812
2601.78354	0.12824
2599.85486	0.12840
2597.92618	0.12859
2595.99751	0.12874
2594.06883	0.12884
2592.14016	0.12893
2590.21148	0.12907
2588.28281	0.12927
2586.35413	0.12949
2584.42545	0.12969
2582.49678	0.12985
2580.56810	0.12999
2578.63943	0.13015
2576.71075	0.13033
2574.78208	0.13050
2572.85340	0.13066
2570.92472	0.13083
2568.99605	0.13098
2567.06737	0.13111
2565.13870	0.13122
2563.21002	0.13135
2561.28135	0.13148
2559.35267	0.13164
2557.42399	0.13181
2555.49532	0.13197
2553.56664	0.13212
2551.63797	0.13229
2549.70929	0.13245
2547.78062	0.13259
2545.85194	0.13276
2543.92326	0.13298
2541.99459	0.13318
2540.06591	0.13334
2538.13724	0.13346
2536.20856	0.13358
2534.27989	0.13370
2532.35121	0.13384
2530.42253	0.13397
2528.49386	0.13410
2526.56518	0.13424
2524.63651	0.13441
2522.70783	0.13462
2520.77916	0.13480
2518.85048	0.13494
2516.92181	0.13509
2514.99313	0.13528
2513.06445	0.13547
2511.13578	0.13565
2509.20710	0.13585
2507.27843	0.13605
2505.34975	0.13623
2503.42108	0.13640
2501.49240	0.13655
2499.56372	0.13668
2497.63505	0.13682
2495.70637	0.13700
2493.77770	0.13718
2491.84902	0.13733
2489.92035	0.13749
2487.99167	0.13770
2486.06299	0.13789
2484.13432	0.13804
2482.20564	0.13820
2480.27697	0.13837
2478.34829	0.13853
2476.41962	0.13872
2474.49094	0.13894
2472.56226	0.13916
2470.63359	0.13935
2468.70491	0.13953
2466.77624	0.13969
2464.84756	0.13981
2462.91889	0.13991
2460.99021	0.14006
2459.06153	0.14022
2457.13286	0.14038
2455.20418	0.14054
2453.27551	0.14071
2451.34683	0.14087
2449.41816	0.14105
2447.48948	0.14123
2445.56080	0.14141
2443.63213	0.14156
2441.70345	0.14174
2439.77478	0.14195
2437.84610	0.14217
2435.91743	0.14233
2433.98875	0.14244
2432.06007	0.14256
2430.13140	0.14272
2428.20272	0.14291
2426.27405	0.14310
2424.34537	0.14327
2422.41670	0.14341
2420.48802	0.14356
2418.55934	0.14375
2416.63067	0.14392
2414.70199	0.14408
2412.77332	0.14425
2410.84464	0.14442
2408.91597	0.14456
2406.98729	0.14472
2405.05861	0.14491
2403.12994	0.14510
2401.20126	0.14528
2399.27259	0.14543
2397.34391	0.14557
2395.41524	0.14569
2393.48656	0.14582
2391.55788	0.14596
2389.62921	0.14611
2387.70053	0.14629
2385.77186	0.14646
2383.84318	0.14662
2381.91451	0.14679
2379.98583	0.14690
2378.05715	0.14693
2376.12848	0.14694
2374.19980	0.14700
2372.27113	0.14707
2370.34245	0.14712
2368.41378	0.14719
2366.48510	0.14727
2364.55642	0.14734
2362.62775	0.14744
2360.69907	0.14760
2358.77040	0.14782
2356.84172	0.14807
2354.91305	0.14833
2352.98437	0.14863
2351.05569	0.14897
2349.12702	0.14924
2347.19834	0.14934
2345.26967	0.14934
2343.34099	0.14938
2341.41232	0.14950
2339.48364	0.14965
2337.55496	0.14983
2335.62629	0.15003
2333.69761	0.15021
2331.76894	0.15038
2329.84026	0.15054
2327.91159	0.15072
2325.98291	0.15090
2324.05423	0.15106
2322.12556	0.15125
2320.19688	0.15152
2318.26821	0.15180
2316.33953	0.15203
2314.41086	0.15226
2312.48218	0.15250
2310.55350	0.15270
2308.62483	0.15289
2306.69615	0.15306
2304.76748	0.15327
2302.83880	0.15347
2300.91013	0.15364
2298.98145	0.15381
2297.05277	0.15399
2295.12410	0.15417
2293.19542	0.15435
2291.26675	0.15451
2289.33807	0.15465
2287.40940	0.15481
2285.48072	0.15501
2283.55204	0.15523
2281.62337	0.15542
2279.69469	0.15556
2277.76602	0.15570
2275.83734	0.15584
2273.90867	0.15594
2271.97999	0.15607
2270.05131	0.15628
2268.12264	0.15650
2266.19396	0.15669
2264.26529	0.15685
2262.33661	0.15701
2260.40794	0.15717
2258.47926	0.15734
2256.55058	0.15750
2254.62191	0.15769
2252.69323	0.15789
2250.76456	0.15803
2248.83588	0.15814
2246.90721	0.15827
2244.97853	0.15845
2243.04985	0.15863
2241.12118	0.15879
2239.19250	0.15894
2237.26383	0.15911
2235.33515	0.15929
2233.40648	0.15948
2231.47780	0.15967
2229.54912	0.15985
2227.62045	0.16001
2225.69177	0.16017
2223.76310	0.16035
2221.83442	0.16051
2219.90575	0.16065
2217.97707	0.16078
2216.04839	0.16093
2214.11972	0.16110
2212.19104	0.16127
2210.26237	0.16141
2208.33369	0.16156
2206.40502	0.16172
2204.47634	0.16187
2202.54766	0.16199
2200.61899	0.16215
2198.69031	0.16235
2196.76164	0.16258
2194.83296	0.16278
2192.90429	0.16292
2190.97561	0.16302
2189.04693	0.16317
2187.11826	0.16337
2185.18958	0.16357
2183.26091	0.16372
2181.33223	0.16385
2179.40356	0.16401
2177.47488	0.16418
2175.54620	0.16435
2173.61753	0.16451
2171.68885	0.16464
2169.76018	0.16476
2167.83150	0.16493
2165.90283	0.16513
2163.97415	0.16528
2162.04547	0.16542
2160.11680	0.16561
2158.18812	0.16585
2156.25945	0.16608
2154.33077	0.16627
2152.40210	0.16645
2150.47342	0.16659
2148.54474	0.16673
2146.61607	0.16689
2144.68739	0.16706
2142.75872	0.16719
2140.83004	0.16731
2138.90137	0.16748
2136.97269	0.16765
2135.04401	0.16780
2133.11534	0.16797
2131.18666	0.16817
2129.25799	0.16835
2127.32931	0.16851
2125.40064	0.16869
2123.47196	0.16889
2121.54328	0.16908
2119.61461	0.16920
2117.68593	0.16933
2115.75726	0.16948
2113.82858	0.16962
2111.89991	0.16981
2109.97123	0.17006
2108.04255	0.17024
2106.11388	0.17033
2104.18520	0.17044
2102.25653	0.17061
2100.32785	0.17080
2098.39918	0.17099
2096.47050	0.17118
2094.54182	0.17137
2092.61315	0.17155
2090.68447	0.17176
2088.75580	0.17199
2086.82712	0.17216
2084.89845	0.17231
2082.96977	0.17247
2081.04109	0.17260
2079.11242	0.17269
2077.18374	0.17282
2075.25507	0.17301
2073.32639	0.17317
2071.39772	0.17331
2069.46904	0.17348
2067.54036	0.17366
2065.61169	0.17382
2063.68301	0.17396
2061.75434	0.17412
2059.82566	0.17430
2057.89699	0.17448
2055.96831	0.17469
2054.03963	0.17492
2052.11096	0.17510
2050.18228	0.17524
2048.25361	0.17540
2046.32493	0.17556
2044.39626	0.17567
2042.46758	0.17577
2040.53890	0.17595
2038.61023	0.17620
2036.68155	0.17644
2034.75288	0.17664
2032.82420	0.17681
2030.89553	0.17692
2028.96685	0.17703
2027.03817	0.17717
2025.10950	0.17732
2023.18082	0.17748
2021.25215	0.17767
2019.32347	0.17788
2017.39480	0.17810
2015.46612	0.17834
2013.53744	0.17856
2011.60877	0.17870
2009.68009	0.17881
2007.75142	0.17896
2005.82274	0.17914
2003.89407	0.17931
2001.96539	0.17945
2000.03671	0.17959
1998.10804	0.17974
1996.17936	0.17986
1994.25069	0.17995
1992.32201	0.18008
1990.39334	0.18028
1988.46466	0.18051
1986.53598	0.18073
1984.60731	0.18091
1982.67863	0.18101
1980.74996	0.18110
1978.82128	0.18126
1976.89261	0.18144
1974.96393	0.18159
1973.03525	0.18173
1971.10658	0.18184
1969.17790	0.18190
1967.24923	0.18201
1965.32055	0.18224
1963.39188	0.18248
1961.46320	0.18264
1959.53452	0.18277
1957.60585	0.18289
1955.67717	0.18299
1953.74850	0.18311
1951.81982	0.18333
1949.89115	0.18356
1947.96247	0.18370
1946.03379	0.18378
1944.10512	0.18387
1942.17644	0.18404
1940.24777	0.18430
1938.31909	0.18454
1936.39042	0.18474
1934.46174	0.18492
1932.53306	0.18506
1930.60439	0.18520
1928.67571	0.18535
1926.74704	0.18549
1924.81836	0.18560
1922.88969	0.18574
1920.96101	0.18589
1919.03233	0.18599
1917.10366	0.18614
1915.17498	0.18641
1913.24631	0.18666
1911.31763	0.18683
1909.38896	0.18699
1907.46028	0.18721
1905.53160	0.18741
1903.60293	0.18756
1901.67425	0.18770
1899.74558	0.18786
1897.81690	0.18796
1895.88823	0.18803
1893.95955	0.18816
1892.03087	0.18825
1890.10220	0.18832
1888.17352	0.18854
1886.24485	0.18880
1884.31617	0.18896
1882.38750	0.18910
1880.45882	0.18929
1878.53014	0.18950
1876.60147	0.18969
1874.67279	0.18988
1872.74412	0.18998
1870.81544	0.18992
1868.88677	0.18992
1866.95809	0.19020
1865.02941	0.19056
1863.10074	0.19078
1861.17206	0.19095
1859.24339	0.19115
1857.31471	0.19133
1855.38604	0.19144
1853.45736	0.19155
1851.52868	0.19171
1849.60001	0.19186
1847.67133	0.19189
1845.74266	0.19184
1843.81398	0.19198
1841.88531	0.19238
1839.95663	0.19276
1838.02795	0.19303
1836.09928	0.19323
1834.17060	0.19336
1832.24193	0.19336
1830.31325	0.19337
1828.38458	0.19347
1826.45590	0.19361
1824.52722	0.19384
1822.59855	0.19416
1820.66987	0.19435
1818.74120	0.19445
1816.81252	0.19465
1814.88385	0.19487
1812.95517	0.19495
1811.02649	0.19502
1809.09782	0.19522
1807.16914	0.19547
1805.24047	0.19560
1803.31179	0.19560
1801.38312	0.19560
1799.45444	0.19573
1797.52576	0.19598
1795.59709	0.19612
1793.66841	0.19607
1791.73974	0.19609
1789.81106	0.19639
1787.88239	0.19662
1785.95371	0.19663
1784.02503	0.19669
1782.09636	0.19691
1780.16768	0.19711
1778.23901	0.19725
1776.31033	0.19733
1774.38166	0.19724
1772.45298	0.19714
1770.52430	0.19720
1768.59563	0.19744
1766.66695	0.19779
1764.73828	0.19802
1762.80960	0.19805
1760.88093	0.19816
1758.95225	0.19827
1757.02357	0.19825
1755.09490	0.19819
1753.16622	0.19800
1751.23755	0.19776
1749.30887	0.19780
1747.38020	0.19805
1745.45152	0.19818
1743.52284	0.19817
1741.59417	0.19814
1739.66549	0.19820
1737.73682	0.19823
1735.80814	0.19797
1733.87947	0.19784
1731.95079	0.19821
1730.02211	0.19874
1728.09344	0.19915
1726.16476	0.19941
1724.23609	0.19950
1722.30741	0.19949
1720.37874	0.19927
1718.45006	0.19895
1716.52138	0.19902
1714.59271	0.19951
1712.66403	0.20002
1710.73536	0.20029
1708.80668	0.20029
1706.87801	0.20021
1704.94933	0.20021
1703.02065	0.20008
1701.09198	0.19981
1699.16330	0.19985
1697.23463	0.20012
1695.30595	0.20041
1693.37728	0.20081
1691.44860	0.20109
1689.51992	0.20108
1687.59125	0.20083
1685.66257	0.20041
1683.73390	0.20029
1681.80522	0.20066
1679.87655	0.20101
1677.94787	0.20095
1676.01919	0.20068
1674.09052	0.20063
1672.16184	0.20069
1670.23317	0.20073
1668.30449	0.20100
1666.37582	0.20134
1664.44714	0.20144
1662.51846	0.20147
1660.58979	0.20166
1658.66111	0.20180
1656.73244	0.20151
1654.80376	0.20079
1652.87509	0.20045
1650.94641	0.20087
1649.01773	0.20119
1647.08906	0.20119
1645.16038	0.20150
1643.23171	0.20199
1641.30303	0.20219
1639.37436	0.20204
1637.44568	0.20173
1635.51700	0.20170
1633.58833	0.20208
1631.65965	0.20244
1629.73098	0.20247
1627.80230	0.20235
1625.87363	0.20212
1623.94495	0.20177
1622.01627	0.20156
1620.08760	0.20154
1618.15892	0.20166
1616.23025	0.20217
1614.30157	0.20299
1612.37290	0.20359
1610.44422	0.20387
1608.51554	0.20413
1606.58687	0.20445
1604.65819	0.20471
1602.72952	0.20488
1600.80084	0.20505
1598.87217	0.20520
1596.94349	0.20534
1595.01481	0.20555
1593.08614	0.20580
1591.15746	0.20599
1589.22879	0.20612
1587.30011	0.20627
1585.37144	0.20642
1583.44276	0.20658
1581.51408	0.20679
1579.58541	0.20683
1577.65673	0.20658
1575.72806	0.20648
1573.79938	0.20681
1571.87071	0.20708
1569.94203	0.20710
1568.01335	0.20725
1566.08468	0.20754
1564.15600	0.20762
1562.22733	0.20725
1560.29865	0.20668
1558.36998	0.20669
1556.44130	0.20735
1554.51262	0.20804
1552.58395	0.20845
1550.65527	0.20862
1548.72660	0.20866
1546.79792	0.20858
1544.86925	0.20833
1542.94057	0.20802
1541.01189	0.20791
1539.08322	0.20831
1537.15454	0.20889
1535.22587	0.20900
1533.29719	0.20897
1531.36852	0.20925
1529.43984	0.20945
1527.51116	0.20932
1525.58249	0.20917
1523.65381	0.20897
1521.72514	0.20880
1519.79646	0.20900
1517.86779	0.20939
1515.93911	0.20967
1514.01043	0.20987
1512.08176	0.20989
1510.15308	0.20958
1508.22441	0.20911
1506.29573	0.20914
1504.36706	0.20983
1502.43838	0.21034
1500.50970	0.21025
1498.58103	0.20997
1496.65235	0.20997
1494.72368	0.21021
1492.79500	0.21022
1490.86633	0.20997
1488.93765	0.20988
1487.00897	0.21005
1485.08030	0.21022
1483.15162	0.21023
1481.22295	0.21010
1479.29427	0.20978
1477.36560	0.20923
1475.43692	0.20863
1473.50824	0.20816
1471.57957	0.20793
1469.65089	0.20788
1467.72222	0.20768
1465.79354	0.20731
1463.86487	0.20716
1461.93619	0.20715
1460.00751	0.20666
1458.07884	0.20582
1456.15016	0.20564
1454.22149	0.20624
1452.29281	0.20673
1450.36414	0.20679
1448.43546	0.20672
1446.50678	0.20683
1444.57811	0.20708
1442.64943	0.20726
1440.72076	0.20726
1438.79208	0.20701
1436.86341	0.20684
1434.93473	0.20713
1433.00605	0.20755
1431.07738	0.20772
1429.14870	0.20784
1427.22003	0.20800
1425.29135	0.20808
1423.36268	0.20804
1421.43400	0.20782
1419.50532	0.20761
1417.57665	0.20777
1415.64797	0.20813
1413.71930	0.20836
1411.79062	0.20848
1409.86195	0.20854
1407.93327	0.20849
1406.00459	0.20837
1404.07592	0.20830
1402.14724	0.20820
1400.21857	0.20800
1398.28989	0.20784
1396.36122	0.20771
1394.43254	0.20769
1392.50386	0.20782
1390.57519	0.20780
1388.64651	0.20740
1386.71784	0.20697
1384.78916	0.20687
1382.86049	0.20698
1380.93181	0.20708
1379.00313	0.20710
1377.07446	0.20708
1375.14578	0.20703
1373.21711	0.20700
1371.28843	0.20705
1369.35976	0.20710
1367.43108	0.20709
1365.50240	0.20702
1363.57373	0.20692
1361.64505	0.20689
1359.71638	0.20698
1357.78770	0.20710
1355.85903	0.20717
1353.93035	0.20721
1352.00167	0.20731
1350.07300	0.20746
1348.14432	0.20759
1346.21565	0.20767
1344.28697	0.20772
1342.35830	0.20767
1340.42962	0.20747
1338.50094	0.20731
1336.57227	0.20733
1334.64359	0.20742
1332.71492	0.20740
1330.78624	0.20725
1328.85757	0.20704
1326.92889	0.20684
1325.00021	0.20666
1323.07154	0.20649
1321.14286	0.20633
1319.21419	0.20614
1317.28551	0.20597
1315.35684	0.20585
1313.42816	0.20571
1311.49948	0.20550
1309.57081	0.20525
1307.64213	0.20504
1305.71346	0.20487
1303.78478	0.20466
1301.85611	0.20442
1299.92743	0.20419
1297.99875	0.20395
1296.07008	0.20371
1294.14140	0.20350
1292.21273	0.20332
1290.28405	0.20310
1288.35538	0.20288
1286.42670	0.20272
1284.49802	0.20256
1282.56935	0.20237
1280.64067	0.20216
1278.71200	0.20193
1276.78332	0.20159
1274.85465	0.20116
1272.92597	0.20070
1270.99729	0.20008
1269.06862	0.19923
1267.13994	0.19824
1265.21127	0.19732
1263.28259	0.19665
1261.35392	0.19639
1259.42524	0.19650
1257.49656	0.19672
1255.56789	0.19689
1253.63921	0.19692
1251.71054	0.19675
1249.78186	0.19648
1247.85319	0.19617
1245.92451	0.19587
1243.99583	0.19556
1242.06716	0.19516
1240.13848	0.19468
1238.20981	0.19416
1236.28113	0.19362
1234.35246	0.19309
1232.42378	0.19257
1230.49510	0.19202
1228.56643	0.19141
1226.63775	0.19078
1224.70908	0.19019
1222.78040	0.18967
1220.85173	0.18915
1218.92305	0.18861
1216.99437	0.18807
1215.06570	0.18754
1213.13702	0.18702
1211.20835	0.18653
1209.27967	0.18606
1207.35100	0.18551
1205.42232	0.18484
1203.49364	0.18415
1201.56497	0.18357
1199.63629	0.18305
1197.70762	0.18250
1195.77894	0.18187
1193.85027	0.18120
1191.92159	0.18051
1189.99291	0.17983
1188.06424	0.17910
1186.13556	0.17827
1184.20689	0.17740
1182.27821	0.17655
1180.34954	0.17572
1178.42086	0.17488
1176.49218	0.17403
1174.56351	0.17320
1172.63483	0.17241
1170.70616	0.17159
1168.77748	0.17072
1166.84881	0.16985
1164.92013	0.16892
1162.99145	0.16797
1161.06278	0.16714
1159.13410	0.16637
1157.20543	0.16555
1155.27675	0.16473
1153.34808	0.16393
1151.41940	0.16310
1149.49072	0.16222
1147.56205	0.16141
1145.63337	0.16059
1143.70470	0.15963
1141.77602	0.15862
1139.84735	0.15765
1137.91867	0.15660
1135.98999	0.15529
1134.06132	0.15383
1132.13264	0.15230
1130.20397	0.15055
1128.27529	0.14851
1126.34662	0.14624
1124.41794	0.14380
1122.48926	0.14126
1120.56059	0.13883
1118.63191	0.13658
1116.70324	0.13445
1114.77456	0.13249
1112.84589	0.13080
1110.91721	0.12945
1108.98853	0.12839
1107.05986	0.12756
1105.13118	0.12710
1103.20251	0.12701
1101.27383	0.12716
1099.34516	0.12755
1097.41648	0.12823
1095.48780	0.12903
1093.55913	0.12986
1091.63045	0.13075
1089.70178	0.13163
1087.77310	0.13238
1085.84443	0.13307
1083.91575	0.13372
1081.98707	0.13418
1080.05840	0.13438
1078.12972	0.13446
1076.20105	0.13453
1074.27237	0.13457
1072.34370	0.13466
1070.41502	0.13486
1068.48634	0.13507
1066.55767	0.13524
1064.62899	0.13547
1062.70032	0.13579
1060.77164	0.13604
1058.84297	0.13623
1056.91429	0.13647
1054.98561	0.13677
1053.05694	0.13701
1051.12826	0.13722
1049.19959	0.13752
1047.27091	0.13788
1045.34224	0.13821
1043.41356	0.13858
1041.48488	0.13901
1039.55621	0.13940
1037.62753	0.13974
1035.69886	0.14016
1033.77018	0.14067
1031.84151	0.14111
1029.91283	0.14147
1027.98415	0.14184
1026.05548	0.14222
1024.12680	0.14259
1022.19813	0.14295
1020.26945	0.14328
1018.34078	0.14361
1016.41210	0.14405
1014.48342	0.14458
1012.55475	0.14512
1010.62607	0.14562
1008.69740	0.14616
1006.76872	0.14677
1004.84005	0.14734
1002.91137	0.14779
1000.98269	0.14810
999.05402	0.14833
997.12534	0.14851
995.19667	0.14869
993.26799	0.14889
991.33932	0.14902
989.41064	0.14907
987.48196	0.14914
985.55329	0.14920
983.62461	0.14922
981.69594	0.14921
979.76726	0.14916
977.83859	0.14902
975.90991	0.14875
973.98123	0.14846
972.05256	0.14824
970.12388	0.14803
968.19521	0.14782
966.26653	0.14770
964.33786	0.14761
962.40918	0.14741
960.48050	0.14716
958.55183	0.14699
956.62315	0.14693
954.69448	0.14686
952.76580	0.14674
950.83713	0.14659
948.90845	0.14637
946.97977	0.14607
945.05110	0.14578
943.12242	0.14549
941.19375	0.14506
939.26507	0.14454
937.33640	0.14414
935.40772	0.14379
933.47904	0.14332
931.55037	0.14271
929.62169	0.14211
927.69302	0.14159
925.76434	0.14111
923.83567	0.14068
921.90699	0.14028
919.97831	0.13974
918.04964	0.13906
916.12096	0.13830
914.19229	0.13748
912.26361	0.13661
910.33494	0.13578
908.40626	0.13502
906.47758	0.13424
904.54891	0.13351
902.62023	0.13294
900.69156	0.13240
898.76288	0.13181
896.83421	0.13127
894.90553	0.13085
892.97685	0.13039
891.04818	0.12982
889.11950	0.12929
887.19083	0.12892
885.26215	0.12862
883.33348	0.12825
881.40480	0.12788
879.47612	0.12756
877.54745	0.12726
875.61877	0.12697
873.69010	0.12671
871.76142	0.12649
869.83275	0.12623
867.90407	0.12593
865.97539	0.12569
864.04672	0.12551
862.11804	0.12544
860.18937	0.12544
858.26069	0.12540
856.33202	0.12526
854.40334	0.12505
852.47466	0.12480
850.54599	0.12445
848.61731	0.12409
846.68864	0.12386
844.75996	0.12371
842.83129	0.12340
840.90261	0.12295
838.97394	0.12253
837.04526	0.12208
835.11658	0.12149
833.18791	0.12073
831.25923	0.11976
829.33056	0.11862
827.40188	0.11744
825.47321	0.11641
823.54453	0.11557
821.61585	0.11484
819.68718	0.11415
817.75850	0.11364
815.82983	0.11332
813.90115	0.11300
811.97248	0.11265
810.04380	0.11234
808.11512	0.11203
806.18645	0.11184
804.25777	0.11185
802.32910	0.11186
800.40042	0.11159
798.47175	0.11104
796.54307	0.11044
794.61439	0.10984
792.68572	0.10926
790.75704	0.10886
788.82837	0.10865
786.89969	0.10844
784.97102	0.10821
783.04234	0.10807
781.11366	0.10789
779.18499	0.10763
777.25631	0.10741
775.32764	0.10721
773.39896	0.10689
771.47029	0.10649
769.54161	0.10611
767.61293	0.10569
765.68426	0.10519
763.75558	0.10473
761.82691	0.10431
759.89823	0.10379
757.96956	0.10315
756.04088	0.10255
754.11220	0.10201
752.18353	0.10138
750.25485	0.10065
748.32618	0.09991
746.39750	0.09913
744.46883	0.09824
742.54015	0.09729
740.61147	0.09646
738.68280	0.09593
736.75412	0.09572
734.82545	0.09572
732.89677	0.09576
730.96810	0.09575
729.03942	0.09575
727.11074	0.09585
725.18207	0.09595
723.25339	0.09592
721.32472	0.09594
719.39604	0.09616
717.46737	0.09644
715.53869	0.09681
713.61001	0.09735
711.68134	0.09783
709.75266	0.09800
707.82399	0.09803
705.89531	0.09813
703.96664	0.09813
702.03796	0.09781
700.10928	0.09735
698.18061	0.09688
696.25193	0.09629
694.32326	0.09562
692.39458	0.09503
690.46591	0.09448
688.53723	0.09387
686.60855	0.09328
684.67988	0.09283
682.75120	0.09238
680.82253	0.09184
678.89385	0.09129
676.96518	0.09076
675.03650	0.09014
673.10782	0.08943
671.17915	0.08867
669.25047	0.08773
667.32180	0.08675
665.39312	0.08603
663.46445	0.08539
661.53577	0.08455
659.60709	0.08357
657.67842	0.08266
655.74974	0.08176
653.82107	0.08085
651.89239	0.08005
649.96372	0.07928
648.03504	0.07837
646.10636	0.07738
644.17769	0.07655
642.24901	0.07568
640.32034	0.07462
638.39166	0.07357
636.46299	0.07268
634.53431	0.07171
632.60563	0.07013
630.67696	0.06759
628.74828	0.06397
626.81961	0.05946
624.89093	0.05497
622.96226	0.05138
621.03358	0.04905
619.10490	0.04775
617.17623	0.04691
615.24755	0.04613
613.31888	0.04504
611.39020	0.04384
609.46153	0.04325
607.53285	0.04341
605.60417	0.04386
603.67550	0.04437
601.74682	0.04520
599.81815	0.04621
597.88947	0.04704
595.96080	0.04774
594.03212	0.04837
592.10344	0.04867
590.17477	0.04862
588.24609	0.04854
586.31742	0.04849
584.38874	0.04824
582.46007	0.04788
580.53139	0.04749
578.60271	0.04699
576.67404	0.04638
574.74536	0.04582
572.81669	0.04530
570.88801	0.04465
568.95934	0.04404
567.03066	0.04365
565.10198	0.04338
563.17331	0.04307
561.24463	0.04278
559.31596	0.04255
557.38728	0.04229
555.45861	0.04199
553.52993	0.04173
551.60125	0.04148
549.67258	0.04122
547.74390	0.04097
545.81523	0.04075
543.88655	0.04057
541.95788	0.04045
540.02920	0.04039
538.10052	0.04028
536.17185	0.04008
534.24317	0.03984
532.31450	0.03964
530.38582	0.03946
528.45715	0.03915
526.52847	0.03882
524.59979	0.03862
522.67112	0.03842
520.74244	0.03789
518.81377	0.03707
516.88509	0.03630
514.95642	0.03570
513.02774	0.03531
511.09906	0.03513
509.17039	0.03499
507.24171	0.03471
505.31304	0.03429
503.38436	0.03387
501.45569	0.03346
499.52701	0.03303
497.59833	0.03262
495.66966	0.03220
493.74098	0.03164
491.81231	0.03096
489.88363	0.03043
487.95496	0.03000
486.02628	0.02944
484.09760	0.02882
482.16893	0.02827
480.24025	0.02773
478.31158	0.02703
476.38290	0.02625
474.45423	0.02561
472.52555	0.02509
470.59687	0.02461
468.66820	0.02424
466.73952	0.02403
464.81085	0.02384
462.88217	0.02369
460.95350	0.02370
459.02482	0.02363
457.09614	0.02346
455.16747	0.02352
453.23879	0.02372
451.31012	0.02361
449.38144	0.02330
447.45277	0.02317
445.52409	0.02308
443.59541	0.02283
441.66674	0.02250
439.73806	0.02211
437.80939	0.02158
435.88071	0.02101
433.95204	0.02059
432.02336	0.02011
430.09468	0.01942
428.16601	0.01878
426.23733	0.01834
424.30866	0.01785
422.37998	0.01710
420.45131	0.01631
418.52263	0.01567
416.59395	0.01503
414.66528	0.01428
412.73660	0.01354
410.80793	0.01285
408.87925	0.01210
406.95058	0.01136
405.02190	0.01075
403.09322	0.01015
401.16455	0.00946
399.23587	0.00889
397.30720	0.00848
395.37852	0.00806
393.44985	0.00768
391.52117	0.00739
389.59249	0.00695
387.66382	0.00634
385.73514	0.00587
383.80647	0.00556
381.87779	0.00518
379.94912	0.00459
378.02044	0.00405
376.09176	0.00369
374.16309	0.00332
372.23441	0.00295
370.30574	0.00265
368.37706	0.00236
