7496.76250	0.00119
7494.83382	0.00120
7492.90514	0.00122
7490.97647	0.00124
7489.04779	0.00123
7487.11912	0.00121
7485.19044	0.00121
7483.26177	0.00123
7481.33309	0.00125
7479.40441	0.00126
7477.47574	0.00126
7475.54706	0.00125
7473.61839	0.00124
7471.68971	0.00123
7469.76104	0.00123
7467.83236	0.00125
7465.90368	0.00125
7463.97501	0.00125
7462.04633	0.00124
7460.11766	0.00124
7458.18898	0.00124
7456.26031	0.00126
7454.33163	0.00128
7452.40295	0.00128
7450.47428	0.00128
7448.54560	0.00128
7446.61693	0.00130
7444.68825	0.00132
7442.75958	0.00134
7440.83090	0.00134
7438.90222	0.00133
7436.97355	0.00132
7435.04487	0.00132
7433.11620	0.00132
7431.18752	0.00134
7429.25885	0.00136
7427.33017	0.00136
7425.40149	0.00135
7423.47282	0.00134
7421.54414	0.00133
7419.61547	0.00132
7417.68679	0.00133
7415.75812	0.00134
7413.82944	0.00134
7411.90076	0.00135
7409.97209	0.00136
7408.04341	0.00137
7406.11474	0.00138
7404.18606	0.00138
7402.25739	0.00138
7400.32871	0.00138
7398.40003	0.00138
7396.47136	0.00138
7394.54268	0.00138
7392.61401	0.00138
7390.68533	0.00137
7388.75666	0.00137
7386.82798	0.00139
7384.89930	0.00142
7382.97063	0.00142
7381.04195	0.00142
7379.11328	0.00141
7377.18460	0.00141
7375.25593	0.00140
7373.32725	0.00140
7371.39857	0.00141
7369.46990	0.00143
7367.54122	0.00145
7365.61255	0.00145
7363.68387	0.00145
7361.75520	0.00146
7359.82652	0.00148
7357.89784	0.00147
7355.96917	0.00147
7354.04049	0.00148
7352.11182	0.00148
7350.18314	0.00147
7348.25447	0.00147
7346.32579	0.00148
7344.39711	0.00148
7342.46844	0.00147
7340.53976	0.00148
7338.61109	0.00149
7336.68241	0.00150
7334.75374	0.00151
7332.82506	0.00151
7330.89638	0.00150
7328.96771	0.00150
7327.03903	0.00151
7325.11036	0.00153
7323.18168	0.00153
7321.25301	0.00152
7319.32433	0.00151
7317.39565	0.00151
7315.46698	0.00150
7313.53830	0.00151
7311.60963	0.00153
7309.68095	0.00155
7307.75228	0.00157
7305.82360	0.00157
7303.89492	0.00158
7301.96625	0.00159
7300.03757	0.00158
7298.10890	0.00157
7296.18022	0.00156
7294.25155	0.00157
7292.32287	0.00158
7290.39419	0.00158
7288.46552	0.00158
7286.53684	0.00159
7284.60817	0.00159
7282.67949	0.00159
7280.75082	0.00158
7278.82214	0.00159
7276.89346	0.00159
7274.96479	0.00159
7273.03611	0.00159
7271.10744	0.00161
7269.17876	0.00163
7267.25009	0.00163
7265.32141	0.00161
7263.39273	0.00161
7261.46406	0.00164
7259.53538	0.00166
7257.60671	0.00167
7255.67803	0.00167
7253.74936	0.00166
7251.82068	0.00165
7249.89200	0.00166
7247.96333	0.00168
7246.03465	0.00169
7244.10598	0.00169
7242.17730	0.00169
7240.24863	0.00169
7238.31995	0.00170
7236.39127	0.00169
7234.46260	0.00167
7232.53392	0.00165
7230.60525	0.00166
7228.67657	0.00168
7226.74790	0.00170
7224.81922	0.00171
7222.89054	0.00171
7220.96187	0.00169
7219.03319	0.00168
7217.10452	0.00170
7215.17584	0.00172
7213.24717	0.00174
7211.31849	0.00174
7209.38981	0.00174
7207.46114	0.00174
7205.53246	0.00175
7203.60379	0.00176
7201.67511	0.00177
7199.74644	0.00178
7197.81776	0.00177
7195.88908	0.00177
7193.96041	0.00177
7192.03173	0.00177
7190.10306	0.00178
7188.17438	0.00179
7186.24571	0.00178
7184.31703	0.00177
7182.38835	0.00175
7180.45968	0.00176
7178.53100	0.00179
7176.60233	0.00181
7174.67365	0.00181
7172.74498	0.00181
7170.81630	0.00180
7168.88762	0.00180
7166.95895	0.00181
7165.03027	0.00182
7163.10160	0.00182
7161.17292	0.00184
7159.24425	0.00185
7157.31557	0.00185
7155.38689	0.00184
7153.45822	0.00184
7151.52954	0.00186
7149.60087	0.00186
7147.67219	0.00186
7145.74352	0.00187
7143.81484	0.00187
7141.88616	0.00186
7139.95749	0.00185
7138.02881	0.00186
7136.10014	0.00188
7134.17146	0.00189
7132.24279	0.00190
7130.31411	0.00192
7128.38543	0.00195
7126.45676	0.00195
7124.52808	0.00194
7122.59941	0.00194
7120.67073	0.00194
7118.74206	0.00195
7116.81338	0.00194
7114.88470	0.00193
7112.95603	0.00192
7111.02735	0.00193
7109.09868	0.00195
7107.17000	0.00197
7105.24133	0.00198
7103.31265	0.00197
7101.38397	0.00195
7099.45530	0.00195
7097.52662	0.00196
7095.59795	0.00196
7093.66927	0.00196
7091.74060	0.00198
7089.81192	0.00201
7087.88324	0.00202
7085.95457	0.00202
7084.02589	0.00202
7082.09722	0.00201
7080.16854	0.00201
7078.23987	0.00202
7076.31119	0.00203
7074.38251	0.00204
7072.45384	0.00204
7070.52516	0.00206
7068.59649	0.00206
7066.66781	0.00205
7064.73914	0.00205
7062.81046	0.00206
7060.88178	0.00207
7058.95311	0.00207
7057.02443	0.00207
7055.09576	0.00208
7053.16708	0.00209
7051.23841	0.00210
7049.30973	0.00209
7047.38105	0.00206
7045.45238	0.00206
7043.52370	0.00209
7041.59503	0.00211
7039.66635	0.00212
7037.73768	0.00212
7035.80900	0.00213
7033.88032	0.00214
7031.95165	0.00215
7030.02297	0.00215
7028.09430	0.00215
7026.16562	0.00214
7024.23695	0.00214
7022.30827	0.00214
7020.37959	0.00215
7018.45092	0.00217
7016.52224	0.00216
7014.59357	0.00215
7012.66489	0.00215
7010.73622	0.00218
7008.80754	0.00220
7006.87886	0.00220
7004.95019	0.00220
7003.02151	0.00221
7001.09284	0.00221
6999.16416	0.00220
6997.23549	0.00220
6995.30681	0.00220
6993.37813	0.00222
6991.44946	0.00223
6989.52078	0.00223
6987.59211	0.00223
6985.66343	0.00224
6983.73476	0.00224
6981.80608	0.00225
6979.87740	0.00224
6977.94873	0.00225
6976.02005	0.00228
6974.09138	0.00229
6972.16270	0.00228
6970.23403	0.00228
6968.30535	0.00228
6966.37667	0.00229
6964.44800	0.00229
6962.51932	0.00230
6960.59065	0.00231
6958.66197	0.00231
6956.73330	0.00229
6954.80462	0.00227
6952.87594	0.00230
6950.94727	0.00233
6949.01859	0.00233
6947.08992	0.00233
6945.16124	0.00235
6943.23257	0.00236
6941.30389	0.00236
6939.37521	0.00235
6937.44654	0.00236
6935.51786	0.00238
6933.58919	0.00239
6931.66051	0.00241
6929.73184	0.00241
6927.80316	0.00240
6925.87448	0.00240
6923.94581	0.00240
6922.01713	0.00240
6920.08846	0.00240
6918.15978	0.00240
6916.23111	0.00241
6914.30243	0.00243
6912.37375	0.00245
6910.44508	0.00245
6908.51640	0.00244
6906.58773	0.00243
6904.65905	0.00243
6902.73038	0.00243
6900.80170	0.00245
6898.87302	0.00246
6896.94435	0.00247
6895.01567	0.00247
6893.08700	0.00247
6891.15832	0.00248
6889.22965	0.00250
6887.30097	0.00250
6885.37229	0.00249
6883.44362	0.00249
6881.51494	0.00250
6879.58627	0.00251
6877.65759	0.00252
6875.72892	0.00252
6873.80024	0.00252
6871.87156	0.00253
6869.94289	0.00254
6868.01421	0.00255
6866.08554	0.00256
6864.15686	0.00257
6862.22819	0.00257
6860.29951	0.00258
6858.37083	0.00259
6856.44216	0.00259
6854.51348	0.00258
6852.58481	0.00258
6850.65613	0.00258
6848.72746	0.00260
6846.79878	0.00262
6844.87010	0.00263
6842.94143	0.00263
6841.01275	0.00263
6839.08408	0.00263
6837.15540	0.00262
6835.22673	0.00263
6833.29805	0.00263
6831.36937	0.00262
6829.44070	0.00263
6827.51202	0.00264
6825.58335	0.00265
6823.65467	0.00265
6821.72600	0.00265
6819.79732	0.00266
6817.86864	0.00268
6815.93997	0.00270
6814.01129	0.00272
6812.08262	0.00273
6810.15394	0.00272
6808.22527	0.00271
6806.29659	0.00270
6804.36791	0.00271
6802.43924	0.00273
6800.51056	0.00274
6798.58189	0.00274
6796.65321	0.00276
6794.72454	0.00278
6792.79586	0.00279
6790.86718	0.00280
6788.93851	0.00279
6787.00983	0.00277
6785.08116	0.00277
6783.15248	0.00279
6781.22381	0.00281
6779.29513	0.00282
6777.36645	0.00282
6775.43778	0.00281
6773.50910	0.00280
6771.58043	0.00281
6769.65175	0.00283
6767.72308	0.00285
6765.79440	0.00285
6763.86572	0.00285
6761.93705	0.00285
6760.00837	0.00286
6758.07970	0.00285
6756.15102	0.00284
6754.22235	0.00285
6752.29367	0.00287
6750.36499	0.00289
6748.43632	0.00290
6746.50764	0.00292
6744.57897	0.00294
6742.65029	0.00295
6740.72162	0.00295
6738.79294	0.00295
6736.86426	0.00295
6734.93559	0.00295
6733.00691	0.00296
6731.07824	0.00295
6729.14956	0.00295
6727.22089	0.00295
6725.29221	0.00294
6723.36353	0.00295
6721.43486	0.00297
6719.50618	0.00300
6717.57751	0.00301
6715.64883	0.00300
6713.72016	0.00299
6711.79148	0.00299
6709.86280	0.00300
6707.93413	0.00301
6706.00545	0.00303
6704.07678	0.00304
6702.14810	0.00305
6700.21943	0.00307
6698.29075	0.00308
6696.36207	0.00308
6694.43340	0.00308
6692.50472	0.00308
6690.57605	0.00308
6688.64737	0.00308
6686.71870	0.00309
6684.79002	0.00310
6682.86134	0.00312
6680.93267	0.00314
6679.00399	0.00314
6677.07532	0.00314
6675.14664	0.00315
6673.21797	0.00316
6671.28929	0.00316
6669.36061	0.00316
6667.43194	0.00318
6665.50326	0.00319
6663.57459	0.00319
6661.64591	0.00318
6659.71724	0.00319
6657.78856	0.00319
6655.85988	0.00320
6653.93121	0.00320
6652.00253	0.00320
6650.07386	0.00322
6648.14518	0.00324
6646.21651	0.00326
6644.28783	0.00326
6642.35915	0.00326
6640.43048	0.00326
6638.50180	0.00326
6636.57313	0.00326
6634.64445	0.00326
6632.71578	0.00326
6630.78710	0.00327
6628.85842	0.00328
6626.92975	0.00328
6625.00107	0.00328
6623.07240	0.00328
6621.14372	0.00329
6619.21505	0.00331
6617.28637	0.00333
6615.35769	0.00334
6613.42902	0.00334
6611.50034	0.00334
6609.57167	0.00334
6607.64299	0.00335
6605.71432	0.00337
6603.78564	0.00339
6601.85696	0.00338
6599.92829	0.00337
6597.99961	0.00339
6596.07094	0.00342
6594.14226	0.00343
6592.21359	0.00343
6590.28491	0.00343
6588.35623	0.00342
6586.42756	0.00343
6584.49888	0.00344
6582.57021	0.00346
6580.64153	0.00348
6578.71286	0.00349
6576.78418	0.00350
6574.85550	0.00351
6572.92683	0.00351
6570.99815	0.00350
6569.06948	0.00351
6567.14080	0.00352
6565.21213	0.00353
6563.28345	0.00354
6561.35477	0.00353
6559.42610	0.00354
6557.49742	0.00356
6555.56875	0.00358
6553.64007	0.00359
6551.71140	0.00358
6549.78272	0.00358
6547.85404	0.00358
6545.92537	0.00360
6543.99669	0.00361
6542.06802	0.00363
6540.13934	0.00363
6538.21067	0.00363
6536.28199	0.00363
6534.35331	0.00365
6532.42464	0.00367
6530.49596	0.00368
6528.56729	0.00368
6526.63861	0.00368
6524.70994	0.00369
6522.78126	0.00369
6520.85258	0.00370
6518.92391	0.00371
6516.99523	0.00372
6515.06656	0.00374
6513.13788	0.00375
6511.20921	0.00376
6509.28053	0.00376
6507.35185	0.00376
6505.42318	0.00375
6503.49450	0.00375
6501.56583	0.00376
6499.63715	0.00378
6497.70848	0.00379
6495.77980	0.00380
6493.85112	0.00381
6491.92245	0.00383
6489.99377	0.00384
6488.06510	0.00384
6486.13642	0.00385
6484.20775	0.00384
6482.27907	0.00384
6480.35039	0.00384
6478.42172	0.00386
6476.49304	0.00388
6474.56437	0.00390
6472.63569	0.00389
6470.70702	0.00390
6468.77834	0.00391
6466.84966	0.00393
6464.92099	0.00393
6462.99231	0.00394
6461.06364	0.00395
6459.13496	0.00395
6457.20629	0.00396
6455.27761	0.00396
6453.34893	0.00396
6451.42026	0.00397
6449.49158	0.00398
6447.56291	0.00398
6445.63423	0.00399
6443.70556	0.00400
6441.77688	0.00402
6439.84820	0.00403
6437.91953	0.00404
6435.99085	0.00405
6434.06218	0.00407
6432.13350	0.00407
6430.20483	0.00408
6428.27615	0.00410
6426.34747	0.00411
6424.41880	0.00412
6422.49012	0.00413
6420.56145	0.00413
6418.63277	0.00413
6416.70410	0.00413
6414.77542	0.00414
6412.84674	0.00415
6410.91807	0.00416
6408.98939	0.00416
6407.06072	0.00416
6405.13204	0.00416
6403.20337	0.00418
6401.27469	0.00421
6399.34601	0.00422
6397.41734	0.00421
6395.48866	0.00419
6393.55999	0.00419
6391.63131	0.00420
6389.70264	0.00423
6387.77396	0.00425
6385.84528	0.00426
6383.91661	0.00426
6381.98793	0.00426
6380.05926	0.00428
6378.13058	0.00430
6376.20191	0.00431
6374.27323	0.00431
6372.34455	0.00431
6370.41588	0.00431
6368.48720	0.00432
6366.55853	0.00434
6364.62985	0.00435
6362.70118	0.00436
6360.77250	0.00437
6358.84382	0.00439
6356.91515	0.00441
6354.98647	0.00441
6353.05780	0.00441
6351.12912	0.00442
6349.20045	0.00445
6347.27177	0.00447
6345.34309	0.00448
6343.41442	0.00450
6341.48574	0.00451
6339.55707	0.00452
6337.62839	0.00453
6335.69972	0.00454
6333.77104	0.00454
6331.84236	0.00454
6329.91369	0.00454
6327.98501	0.00454
6326.05634	0.00456
6324.12766	0.00457
6322.19899	0.00458
6320.27031	0.00459
6318.34163	0.00461
6316.41296	0.00461
6314.48428	0.00460
6312.55561	0.00460
6310.62693	0.00460
6308.69826	0.00461
6306.76958	0.00462
6304.84090	0.00464
6302.91223	0.00467
6300.98355	0.00469
6299.05488	0.00470
6297.12620	0.00470
6295.19753	0.00471
6293.26885	0.00472
6291.34017	0.00473
6289.41150	0.00476
6287.48282	0.00477
6285.55415	0.00477
6283.62547	0.00477
6281.69680	0.00477
6279.76812	0.00478
6277.83944	0.00480
6275.91077	0.00481
6273.98209	0.00481
6272.05342	0.00482
6270.12474	0.00485
6268.19607	0.00487
6266.26739	0.00488
6264.33871	0.00488
6262.41004	0.00490
6260.48136	0.00492
6258.55269	0.00493
6256.62401	0.00493
6254.69534	0.00493
6252.76666	0.00493
6250.83798	0.00492
6248.90931	0.00492
6246.98063	0.00493
6245.05196	0.00495
6243.12328	0.00498
6241.19461	0.00500
6239.26593	0.00501
6237.33725	0.00501
6235.40858	0.00503
6233.47990	0.00504
6231.55123	0.00505
6229.62255	0.00505
6227.69388	0.00505
6225.76520	0.00506
6223.83652	0.00508
6221.90785	0.00509
6219.97917	0.00510
6218.05050	0.00513
6216.12182	0.00514
6214.19315	0.00514
6212.26447	0.00513
6210.33579	0.00513
6208.40712	0.00514
6206.47844	0.00516
6204.54977	0.00518
6202.62109	0.00518
6200.69242	0.00518
6198.76374	0.00521
6196.83506	0.00524
6194.90639	0.00526
6192.97771	0.00527
6191.04904	0.00527
6189.12036	0.00528
6187.19169	0.00530
6185.26301	0.00531
6183.33433	0.00533
6181.40566	0.00534
6179.47698	0.00533
6177.54831	0.00534
6175.61963	0.00536
6173.69096	0.00538
6171.76228	0.00538
6169.83360	0.00538
6167.90493	0.00538
6165.97625	0.00539
6164.04758	0.00539
6162.11890	0.00541
6160.19023	0.00544
6158.26155	0.00546
6156.33287	0.00548
6154.40420	0.00550
6152.47552	0.00549
6150.54685	0.00548
6148.61817	0.00550
6146.68950	0.00551
6144.76082	0.00552
6142.83214	0.00554
6140.90347	0.00555
6138.97479	0.00557
6137.04612	0.00558
6135.11744	0.00558
6133.18877	0.00560
6131.26009	0.00562
6129.33141	0.00565
6127.40274	0.00567
6125.47406	0.00568
6123.54539	0.00568
6121.61671	0.00567
6119.68804	0.00569
6117.75936	0.00571
6115.83068	0.00571
6113.90201	0.00572
6111.97333	0.00574
6110.04466	0.00577
6108.11598	0.00579
6106.18731	0.00579
6104.25863	0.00579
6102.32995	0.00580
6100.40128	0.00581
6098.47260	0.00582
6096.54393	0.00584
6094.61525	0.00586
6092.68658	0.00586
6090.75790	0.00586
6088.82922	0.00587
6086.90055	0.00590
6084.97187	0.00593
6083.04320	0.00593
6081.11452	0.00592
6079.18585	0.00593
6077.25717	0.00595
6075.32849	0.00597
6073.39982	0.00596
6071.47114	0.00595
6069.54247	0.00594
6067.61379	0.00596
6065.68512	0.00599
6063.75644	0.00603
6061.82776	0.00604
6059.89909	0.00606
6057.97041	0.00607
6056.04174	0.00608
6054.11306	0.00608
6052.18439	0.00608
6050.25571	0.00609
6048.32703	0.00612
6046.39836	0.00615
6044.46968	0.00617
6042.54101	0.00617
6040.61233	0.00617
6038.68366	0.00619
6036.75498	0.00621
6034.82630	0.00622
6032.89763	0.00624
6030.96895	0.00624
6029.04028	0.00624
6027.11160	0.00624
6025.18293	0.00626
6023.25425	0.00627
6021.32557	0.00629
6019.39690	0.00632
6017.46822	0.00635
6015.53955	0.00636
6013.61087	0.00637
6011.68220	0.00639
6009.75352	0.00641
6007.82484	0.00641
6005.89617	0.00642
6003.96749	0.00644
6002.03882	0.00645
6000.11014	0.00645
5998.18147	0.00647
5996.25279	0.00649
5994.32411	0.00650
5992.39544	0.00650
5990.46676	0.00651
5988.53809	0.00653
5986.60941	0.00654
5984.68074	0.00655
5982.75206	0.00658
5980.82338	0.00661
5978.89471	0.00662
5976.96603	0.00662
5975.03736	0.00663
5973.10868	0.00665
5971.18001	0.00667
5969.25133	0.00668
5967.32265	0.00670
5965.39398	0.00669
5963.46530	0.00668
5961.53663	0.00669
5959.60795	0.00672
5957.67928	0.00676
5955.75060	0.00679
5953.82192	0.00681
5951.89325	0.00681
5949.96457	0.00681
5948.03590	0.00682
5946.10722	0.00684
5944.17855	0.00685
5942.24987	0.00687
5940.32119	0.00690
5938.39252	0.00692
5936.46384	0.00694
5934.53517	0.00693
5932.60649	0.00691
5930.67782	0.00691
5928.74914	0.00693
5926.82046	0.00696
5924.89179	0.00700
5922.96311	0.00702
5921.03444	0.00703
5919.10576	0.00703
5917.17709	0.00704
5915.24841	0.00707
5913.31973	0.00708
5911.39106	0.00708
5909.46238	0.00710
5907.53371	0.00712
5905.60503	0.00715
5903.67636	0.00717
5901.74768	0.00718
5899.81900	0.00720
5897.89033	0.00722
5895.96165	0.00722
5894.03298	0.00723
5892.10430	0.00726
5890.17563	0.00729
5888.24695	0.00729
5886.31827	0.00729
5884.38960	0.00731
5882.46092	0.00732
5880.53225	0.00733
5878.60357	0.00734
5876.67490	0.00734
5874.74622	0.00736
5872.81755	0.00738
5870.88887	0.00740
5868.96019	0.00742
5867.03152	0.00743
5865.10284	0.00745
5863.17417	0.00747
5861.24549	0.00748
5859.31682	0.00750
5857.38814	0.00751
5855.45946	0.00753
5853.53079	0.00755
5851.60211	0.00758
5849.67344	0.00760
5847.74476	0.00761
5845.81609	0.00761
5843.88741	0.00759
5841.95873	0.00759
5840.03006	0.00763
5838.10138	0.00767
5836.17271	0.00770
5834.24403	0.00770
5832.31536	0.00770
5830.38668	0.00771
5828.45800	0.00773
5826.52933	0.00775
5824.60065	0.00777
5822.67198	0.00778
5820.74330	0.00780
5818.81463	0.00782
5816.88595	0.00784
5814.95727	0.00785
5813.02860	0.00786
5811.09992	0.00788
5809.17125	0.00790
5807.24257	0.00792
5805.31390	0.00794
5803.38522	0.00796
5801.45654	0.00798
5799.52787	0.00800
5797.59919	0.00801
5795.67052	0.00802
5793.74184	0.00802
5791.81317	0.00804
5789.88449	0.00806
5787.95581	0.00809
5786.02714	0.00813
5784.09846	0.00815
5782.16979	0.00815
5780.24111	0.00814
5778.31244	0.00815
5776.38376	0.00818
5774.45508	0.00819
5772.52641	0.00820
5770.59773	0.00820
5768.66906	0.00821
5766.74038	0.00824
5764.81171	0.00827
5762.88303	0.00831
5760.95435	0.00832
5759.02568	0.00832
5757.09700	0.00831
5755.16833	0.00833
5753.23965	0.00836
5751.31098	0.00838
5749.38230	0.00840
5747.45362	0.00842
5745.52495	0.00844
5743.59627	0.00848
5741.66760	0.00850
5739.73892	0.00851
5737.81025	0.00850
5735.88157	0.00851
5733.95289	0.00855
5732.02422	0.00857
5730.09554	0.00859
5728.16687	0.00859
5726.23819	0.00860
5724.30952	0.00861
5722.38084	0.00862
5720.45216	0.00865
5718.52349	0.00867
5716.59481	0.00870
5714.66614	0.00871
5712.73746	0.00872
5710.80879	0.00874
5708.88011	0.00879
5706.95143	0.00881
5705.02276	0.00881
5703.09408	0.00881
5701.16541	0.00882
5699.23673	0.00884
5697.30806	0.00886
5695.37938	0.00889
5693.45070	0.00892
5691.52203	0.00894
5689.59335	0.00895
5687.66468	0.00896
5685.73600	0.00898
5683.80733	0.00900
5681.87865	0.00901
5679.94997	0.00902
5678.02130	0.00902
5676.09262	0.00903
5674.16395	0.00905
5672.23527	0.00909
5670.30660	0.00912
5668.37792	0.00914
5666.44924	0.00916
5664.52057	0.00919
5662.59189	0.00920
5660.66322	0.00921
5658.73454	0.00922
5656.80587	0.00923
5654.87719	0.00926
5652.94851	0.00930
5651.01984	0.00932
5649.09116	0.00932
5647.16249	0.00931
5645.23381	0.00932
5643.30514	0.00935
5641.37646	0.00938
5639.44778	0.00940
5637.51911	0.00940
5635.59043	0.00940
5633.66176	0.00942
5631.73308	0.00945
5629.80441	0.00948
5627.87573	0.00951
5625.94705	0.00954
5624.01838	0.00957
5622.08970	0.00960
5620.16103	0.00961
5618.23235	0.00961
5616.30368	0.00962
5614.37500	0.00964
5612.44632	0.00964
5610.51765	0.00964
5608.58897	0.00967
5606.66030	0.00971
5604.73162	0.00973
5602.80295	0.00975
5600.87427	0.00977
5598.94559	0.00980
5597.01692	0.00981
5595.08824	0.00981
5593.15957	0.00981
5591.23089	0.00984
5589.30222	0.00988
5587.37354	0.00992
5585.44486	0.00995
5583.51619	0.00996
5581.58751	0.00997
5579.65884	0.00999
5577.73016	0.01003
5575.80149	0.01007
5573.87281	0.01008
5571.94413	0.01008
5570.01546	0.01008
5568.08678	0.01009
5566.15811	0.01009
5564.22943	0.01009
5562.30076	0.01011
5560.37208	0.01013
5558.44340	0.01017
5556.51473	0.01020
5554.58605	0.01021
5552.65738	0.01021
5550.72870	0.01022
5548.80003	0.01025
5546.87135	0.01028
5544.94267	0.01030
5543.01400	0.01030
5541.08532	0.01033
5539.15665	0.01035
5537.22797	0.01038
5535.29930	0.01040
5533.37062	0.01042
5531.44194	0.01044
5529.51327	0.01046
5527.58459	0.01050
5525.65592	0.01053
5523.72724	0.01054
5521.79857	0.01054
5519.86989	0.01056
5517.94121	0.01060
5516.01254	0.01063
5514.08386	0.01064
5512.15519	0.01066
5510.22651	0.01068
5508.29784	0.01068
5506.36916	0.01070
5504.44048	0.01073
5502.51181	0.01076
5500.58313	0.01079
5498.65446	0.01082
5496.72578	0.01084
5494.79711	0.01084
5492.86843	0.01084
5490.93975	0.01086
5489.01108	0.01089
5487.08240	0.01092
5485.15373	0.01095
5483.22505	0.01098
5481.29638	0.01101
5479.36770	0.01102
5477.43902	0.01102
5475.51035	0.01103
5473.58167	0.01104
5471.65300	0.01105
5469.72432	0.01106
5467.79565	0.01109
5465.86697	0.01113
5463.93829	0.01117
5462.00962	0.01120
5460.08094	0.01122
5458.15227	0.01125
5456.22359	0.01127
5454.29492	0.01129
5452.36624	0.01131
5450.43756	0.01135
5448.50889	0.01137
5446.58021	0.01136
5444.65154	0.01136
5442.72286	0.01137
5440.79419	0.01140
5438.86551	0.01145
5436.93683	0.01150
5435.00816	0.01151
5433.07948	0.01151
5431.15081	0.01152
5429.22213	0.01155
5427.29346	0.01159
5425.36478	0.01161
5423.43610	0.01162
5421.50743	0.01163
5419.57875	0.01165
5417.65008	0.01166
5415.72140	0.01166
5413.79273	0.01168
5411.86405	0.01171
5409.93537	0.01175
5408.00670	0.01179
5406.07802	0.01184
5404.14935	0.01187
5402.22067	0.01187
5400.29200	0.01188
5398.36332	0.01190
5396.43464	0.01191
5394.50597	0.01192
5392.57729	0.01195
5390.64862	0.01198
5388.71994	0.01201
5386.79127	0.01203
5384.86259	0.01205
5382.93391	0.01207
5381.00524	0.01207
5379.07656	0.01208
5377.14789	0.01209
5375.21921	0.01211
5373.29054	0.01213
5371.36186	0.01216
5369.43318	0.01220
5367.50451	0.01223
5365.57583	0.01225
5363.64716	0.01227
5361.71848	0.01229
5359.78981	0.01232
5357.86113	0.01234
5355.93245	0.01236
5354.00378	0.01238
5352.07510	0.01241
5350.14643	0.01243
5348.21775	0.01244
5346.28908	0.01244
5344.36040	0.01245
5342.43172	0.01248
5340.50305	0.01251
5338.57437	0.01253
5336.64570	0.01255
5334.71702	0.01259
5332.78835	0.01263
5330.85967	0.01267
5328.93099	0.01269
5327.00232	0.01271
5325.07364	0.01272
5323.14497	0.01272
5321.21629	0.01276
5319.28762	0.01279
5317.35894	0.01282
5315.43026	0.01286
5313.50159	0.01291
5311.57291	0.01292
5309.64424	0.01291
5307.71556	0.01293
5305.78689	0.01297
5303.85821	0.01302
5301.92953	0.01304
5300.00086	0.01306
5298.07218	0.01308
5296.14351	0.01311
5294.21483	0.01313
5292.28616	0.01314
5290.35748	0.01315
5288.42880	0.01315
5286.50013	0.01317
5284.57145	0.01322
5282.64278	0.01325
5280.71410	0.01327
5278.78543	0.01329
5276.85675	0.01331
5274.92807	0.01334
5272.99940	0.01337
5271.07072	0.01340
5269.14205	0.01342
5267.21337	0.01344
5265.28470	0.01346
5263.35602	0.01348
5261.42734	0.01349
5259.49867	0.01351
5257.56999	0.01353
5255.64132	0.01357
5253.71264	0.01362
5251.78397	0.01364
5249.85529	0.01363
5247.92661	0.01362
5245.99794	0.01365
5244.06926	0.01370
5242.14059	0.01373
5240.21191	0.01376
5238.28324	0.01379
5236.35456	0.01381
5234.42588	0.01382
5232.49721	0.01384
5230.56853	0.01386
5228.63986	0.01388
5226.71118	0.01391
5224.78251	0.01395
5222.85383	0.01397
5220.92515	0.01397
5218.99648	0.01398
5217.06780	0.01400
5215.13913	0.01403
5213.21045	0.01407
5211.28178	0.01412
5209.35310	0.01413
5207.42442	0.01413
5205.49575	0.01415
5203.56707	0.01419
5201.63840	0.01424
5199.70972	0.01427
5197.78105	0.01428
5195.85237	0.01430
5193.92369	0.01434
5191.99502	0.01437
5190.06634	0.01438
5188.13767	0.01438
5186.20899	0.01440
5184.28032	0.01444
5182.35164	0.01447
5180.42296	0.01451
5178.49429	0.01456
5176.56561	0.01460
5174.63694	0.01461
5172.70826	0.01464
5170.77959	0.01464
5168.85091	0.01463
5166.92223	0.01463
5164.99356	0.01466
5163.06488	0.01471
5161.13621	0.01474
5159.20753	0.01476
5157.27886	0.01479
5155.35018	0.01484
5153.42150	0.01488
5151.49283	0.01491
5149.56415	0.01492
5147.63548	0.01494
5145.70680	0.01495
5143.77813	0.01497
5141.84945	0.01500
5139.92077	0.01502
5137.99210	0.01503
5136.06342	0.01505
5134.13475	0.01510
5132.20607	0.01515
5130.27740	0.01517
5128.34872	0.01517
5126.42004	0.01517
5124.49137	0.01518
5122.56269	0.01521
5120.63402	0.01526
5118.70534	0.01529
5116.77667	0.01531
5114.84799	0.01533
5112.91931	0.01535
5110.99064	0.01538
5109.06196	0.01541
5107.13329	0.01544
5105.20461	0.01546
5103.27594	0.01549
5101.34726	0.01552
5099.41858	0.01554
5097.48991	0.01556
5095.56123	0.01558
5093.63256	0.01561
5091.70388	0.01564
5089.77521	0.01570
5087.84653	0.01573
5085.91785	0.01575
5083.98918	0.01577
5082.06050	0.01579
5080.13183	0.01580
5078.20315	0.01581
5076.27448	0.01583
5074.34580	0.01586
5072.41712	0.01589
5070.48845	0.01591
5068.55977	0.01595
5066.63110	0.01600
5064.70242	0.01602
5062.77375	0.01603
5060.84507	0.01604
5058.91639	0.01609
5056.98772	0.01613
5055.05904	0.01614
5053.13037	0.01615
5051.20169	0.01617
5049.27302	0.01619
5047.34434	0.01622
5045.41566	0.01625
5043.48699	0.01629
5041.55831	0.01634
5039.62964	0.01638
5037.70096	0.01640
5035.77229	0.01642
5033.84361	0.01646
5031.91493	0.01648
5029.98626	0.01649
5028.05758	0.01652
5026.12891	0.01655
5024.20023	0.01657
5022.27156	0.01658
5020.34288	0.01660
5018.41420	0.01662
5016.48553	0.01664
5014.55685	0.01667
5012.62818	0.01671
5010.69950	0.01677
5008.77083	0.01680
5006.84215	0.01683
5004.91347	0.01685
5002.98480	0.01687
5001.05612	0.01690
4999.12745	0.01694
4997.19877	0.01698
4995.27010	0.01700
4993.34142	0.01701
4991.41274	0.01702
4989.48407	0.01705
4987.55539	0.01709
4985.62672	0.01713
4983.69804	0.01716
4981.76937	0.01717
4979.84069	0.01718
4977.91201	0.01720
4975.98334	0.01723
4974.05466	0.01726
4972.12599	0.01730
4970.19731	0.01732
4968.26864	0.01733
4966.33996	0.01737
4964.41128	0.01742
4962.48261	0.01745
4960.55393	0.01748
4958.62526	0.01751
4956.69658	0.01754
4954.76791	0.01757
4952.83923	0.01759
4950.91055	0.01761
4948.98188	0.01764
4947.05320	0.01768
4945.12453	0.01772
4943.19585	0.01777
4941.26718	0.01779
4939.33850	0.01778
4937.40982	0.01780
4935.48115	0.01782
4933.55247	0.01785
4931.62380	0.01789
4929.69512	0.01794
4927.76645	0.01797
4925.83777	0.01798
4923.90909	0.01798
4921.98042	0.01800
4920.05174	0.01805
4918.12307	0.01810
4916.19439	0.01812
4914.26572	0.01813
4912.33704	0.01814
4910.40836	0.01816
4908.47969	0.01819
4906.55101	0.01822
4904.62234	0.01826
4902.69366	0.01830
4900.76499	0.01833
4898.83631	0.01836
4896.90763	0.01839
4894.97896	0.01842
4893.05028	0.01845
4891.12161	0.01850
4889.19293	0.01853
4887.26426	0.01854
4885.33558	0.01855
4883.40690	0.01859
4881.47823	0.01863
4879.54955	0.01866
4877.62088	0.01869
4875.69220	0.01872
4873.76353	0.01875
4871.83485	0.01879
4869.90617	0.01884
4867.97750	0.01886
4866.04882	0.01887
4864.12015	0.01888
4862.19147	0.01890
4860.26280	0.01894
4858.33412	0.01898
4856.40544	0.01901
4854.47677	0.01903
4852.54809	0.01906
4850.61942	0.01909
4848.69074	0.01912
4846.76207	0.01915
4844.83339	0.01919
4842.90471	0.01922
4840.97604	0.01923
4839.04736	0.01925
4837.11869	0.01929
4835.19001	0.01934
4833.26134	0.01938
4831.33266	0.01942
4829.40398	0.01946
4827.47531	0.01949
4825.54663	0.01951
4823.61796	0.01954
4821.68928	0.01958
4819.76061	0.01963
4817.83193	0.01966
4815.90325	0.01968
4813.97458	0.01971
4812.04590	0.01973
4810.11723	0.01974
4808.18855	0.01977
4806.25988	0.01981
4804.33120	0.01984
4802.40252	0.01987
4800.47385	0.01990
4798.54517	0.01995
4796.61650	0.01997
4794.68782	0.01999
4792.75915	0.02001
4790.83047	0.02005
4788.90179	0.02009
4786.97312	0.02011
4785.04444	0.02012
4783.11577	0.02016
4781.18709	0.02020
4779.25842	0.02024
4777.32974	0.02028
4775.40106	0.02032
4773.47239	0.02035
4771.54371	0.02038
4769.61504	0.02043
4767.68636	0.02047
4765.75769	0.02049
4763.82901	0.02052
4761.90033	0.02054
4759.97166	0.02057
4758.04298	0.02059
4756.11431	0.02063
4754.18563	0.02068
4752.25696	0.02072
4750.32828	0.02075
4748.39960	0.02077
4746.47093	0.02081
4744.54225	0.02084
4742.61358	0.02086
4740.68490	0.02088
4738.75623	0.02093
4736.82755	0.02098
4734.89887	0.02101
4732.97020	0.02102
4731.04152	0.02103
4729.11285	0.02106
4727.18417	0.02110
4725.25550	0.02114
4723.32682	0.02118
4721.39814	0.02119
4719.46947	0.02122
4717.54079	0.02127
4715.61212	0.02133
4713.68344	0.02137
4711.75477	0.02140
4709.82609	0.02142
4707.89741	0.02145
4705.96874	0.02147
4704.04006	0.02150
4702.11139	0.02157
4700.18271	0.02163
4698.25404	0.02165
4696.32536	0.02167
4694.39668	0.02171
4692.46801	0.02176
4690.53933	0.02178
4688.61066	0.02181
4686.68198	0.02186
4684.75331	0.02189
4682.82463	0.02190
4680.89595	0.02192
4678.96728	0.02197
4677.03860	0.02203
4675.10993	0.02207
4673.18125	0.02209
4671.25258	0.02212
4669.32390	0.02217
4667.39522	0.02221
4665.46655	0.02223
4663.53787	0.02225
4661.60920	0.02227
4659.68052	0.02229
4657.75185	0.02233
4655.82317	0.02238
4653.89449	0.02243
4651.96582	0.02246
4650.03714	0.02248
4648.10847	0.02250
4646.17979	0.02254
4644.25112	0.02257
4642.32244	0.02260
4640.39376	0.02265
4638.46509	0.02270
4636.53641	0.02274
4634.60774	0.02278
4632.67906	0.02282
4630.75039	0.02287
4628.82171	0.02290
4626.89303	0.02293
4624.96436	0.02298
4623.03568	0.02303
4621.10701	0.02306
4619.17833	0.02310
4617.24966	0.02315
4615.32098	0.02319
4613.39230	0.02324
4611.46363	0.02328
4609.53495	0.02331
4607.60628	0.02334
4605.67760	0.02338
4603.74893	0.02342
4601.82025	0.02346
4599.89157	0.02348
4597.96290	0.02351
4596.03422	0.02357
4594.10555	0.02364
4592.17687	0.02368
4590.24820	0.02370
4588.31952	0.02372
4586.39084	0.02377
4584.46217	0.02382
4582.53349	0.02385
4580.60482	0.02388
4578.67614	0.02392
4576.74747	0.02396
4574.81879	0.02399
4572.89011	0.02401
4570.96144	0.02404
4569.03276	0.02409
4567.10409	0.02414
4565.17541	0.02419
4563.24674	0.02426
4561.31806	0.02433
4559.38938	0.02437
4557.46071	0.02439
4555.53203	0.02441
4553.60336	0.02445
4551.67468	0.02450
4549.74601	0.02454
4547.81733	0.02456
4545.88865	0.02459
4543.95998	0.02462
4542.03130	0.02466
4540.10263	0.02472
4538.17395	0.02476
4536.24528	0.02478
4534.31660	0.02482
4532.38792	0.02487
4530.45925	0.02492
4528.53057	0.02498
4526.60190	0.02503
4524.67322	0.02506
4522.74455	0.02506
4520.81587	0.02507
4518.88719	0.02512
4516.95852	0.02519
4515.02984	0.02524
4513.10117	0.02526
4511.17249	0.02530
4509.24382	0.02536
4507.31514	0.02542
4505.38646	0.02547
4503.45779	0.02552
4501.52911	0.02557
4499.60044	0.02561
4497.67176	0.02564
4495.74309	0.02566
4493.81441	0.02570
4491.88573	0.02576
4489.95706	0.02581
4488.02838	0.02584
4486.09971	0.02590
4484.17103	0.02596
4482.24236	0.02601
4480.31368	0.02603
4478.38500	0.02606
4476.45633	0.02611
4474.52765	0.02617
4472.59898	0.02622
4470.67030	0.02626
4468.74163	0.02629
4466.81295	0.02634
4464.88427	0.02639
4462.95560	0.02643
4461.02692	0.02649
4459.09825	0.02654
4457.16957	0.02659
4455.24090	0.02661
4453.31222	0.02663
4451.38354	0.02669
4449.45487	0.02674
4447.52619	0.02678
4445.59752	0.02682
4443.66884	0.02687
4441.74017	0.02692
4439.81149	0.02698
4437.88281	0.02703
4435.95414	0.02707
4434.02546	0.02711
4432.09679	0.02715
4430.16811	0.02721
4428.23944	0.02727
4426.31076	0.02733
4424.38208	0.02737
4422.45341	0.02741
4420.52473	0.02745
4418.59606	0.02750
4416.66738	0.02753
4414.73871	0.02756
4412.81003	0.02762
4410.88135	0.02768
4408.95268	0.02773
4407.02400	0.02777
4405.09533	0.02780
4403.16665	0.02784
4401.23798	0.02791
4399.30930	0.02796
4397.38062	0.02800
4395.45195	0.02807
4393.52327	0.02815
4391.59460	0.02819
4389.66592	0.02822
4387.73725	0.02825
4385.80857	0.02830
4383.87989	0.02835
4381.95122	0.02841
4380.02254	0.02849
4378.09387	0.02856
4376.16519	0.02860
4374.23652	0.02862
4372.30784	0.02867
4370.37916	0.02875
4368.45049	0.02882
4366.52181	0.02886
4364.59314	0.02889
4362.66446	0.02892
4360.73579	0.02896
4358.80711	0.02901
4356.87843	0.02907
4354.94976	0.02913
4353.02108	0.02917
4351.09241	0.02922
4349.16373	0.02928
4347.23506	0.02934
4345.30638	0.02938
4343.37770	0.02942
4341.44903	0.02949
4339.52035	0.02956
4337.59168	0.02961
4335.66300	0.02966
4333.73433	0.02971
4331.80565	0.02976
4329.87697	0.02980
4327.94830	0.02985
4326.01962	0.02990
4324.09095	0.02995
4322.16227	0.03001
4320.23360	0.03008
4318.30492	0.03014
4316.37624	0.03017
4314.44757	0.03023
4312.51889	0.03032
4310.59022	0.03039
4308.66154	0.03044
4306.73287	0.03048
4304.80419	0.03054
4302.87551	0.03059
4300.94684	0.03064
4299.01816	0.03069
4297.08949	0.03076
4295.16081	0.03082
4293.23214	0.03086
4291.30346	0.03091
4289.37478	0.03099
4287.44611	0.03105
4285.51743	0.03109
4283.58876	0.03114
4281.66008	0.03121
4279.73141	0.03128
4277.80273	0.03134
4275.87405	0.03139
4273.94538	0.03143
4272.01670	0.03146
4270.08803	0.03150
4268.15935	0.03153
4266.23068	0.03159
4264.30200	0.03169
4262.37332	0.03180
4260.44465	0.03188
4258.51597	0.03193
4256.58730	0.03197
4254.65862	0.03201
4252.72995	0.03205
4250.80127	0.03209
4248.87259	0.03215
4246.94392	0.03223
4245.01524	0.03230
4243.08657	0.03238
4241.15789	0.03245
4239.22922	0.03252
4237.30054	0.03259
4235.37186	0.03264
4233.44319	0.03267
4231.51451	0.03271
4229.58584	0.03277
4227.65716	0.03284
4225.72849	0.03289
4223.79981	0.03294
4221.87113	0.03300
4219.94246	0.03309
4218.01378	0.03317
4216.08511	0.03321
4214.15643	0.03323
4212.22776	0.03329
4210.29908	0.03339
4208.37040	0.03348
4206.44173	0.03354
4204.51305	0.03359
4202.58438	0.03364
4200.65570	0.03369
4198.72703	0.03375
4196.79835	0.03381
4194.86968	0.03387
4192.94100	0.03394
4191.01232	0.03400
4189.08365	0.03405
4187.15497	0.03409
4185.22630	0.03415
4183.29762	0.03423
4181.36895	0.03430
4179.44027	0.03438
4177.51159	0.03444
4175.58292	0.03450
4173.65424	0.03456
4171.72557	0.03463
4169.79689	0.03470
4167.86822	0.03478
4165.93954	0.03487
4164.01086	0.03495
4162.08219	0.03502
4160.15351	0.03508
4158.22484	0.03514
4156.29616	0.03520
4154.36749	0.03524
4152.43881	0.03529
4150.51013	0.03537
4148.58146	0.03545
4146.65278	0.03549
4144.72411	0.03553
4142.79543	0.03559
4140.86676	0.03568
4138.93808	0.03578
4137.00940	0.03585
4135.08073	0.03589
4133.15205	0.03592
4131.22338	0.03598
4129.29470	0.03606
4127.36603	0.03617
4125.43735	0.03627
4123.50867	0.03634
4121.58000	0.03639
4119.65132	0.03643
4117.72265	0.03651
4115.79397	0.03659
4113.86530	0.03668
4111.93662	0.03676
4110.00794	0.03684
4108.07927	0.03690
4106.15059	0.03695
4104.22192	0.03698
4102.29324	0.03703
4100.36457	0.03712
4098.43589	0.03721
4096.50721	0.03727
4094.57854	0.03733
4092.64986	0.03740
4090.72119	0.03749
4088.79251	0.03757
4086.86384	0.03763
4084.93516	0.03770
4083.00648	0.03776
4081.07781	0.03783
4079.14913	0.03790
4077.22046	0.03798
4075.29178	0.03806
4073.36311	0.03813
4071.43443	0.03821
4069.50575	0.03828
4067.57708	0.03835
4065.64840	0.03843
4063.71973	0.03850
4061.79105	0.03857
4059.86238	0.03865
4057.93370	0.03874
4056.00502	0.03882
4054.07635	0.03887
4052.14767	0.03893
4050.21900	0.03902
4048.29032	0.03911
4046.36165	0.03917
4044.43297	0.03923
4042.50429	0.03928
4040.57562	0.03936
4038.64694	0.03946
4036.71827	0.03954
4034.78959	0.03960
4032.86092	0.03967
4030.93224	0.03975
4029.00356	0.03984
4027.07489	0.03993
4025.14621	0.04001
4023.21754	0.04007
4021.28886	0.04012
4019.36019	0.04019
4017.43151	0.04027
4015.50283	0.04037
4013.57416	0.04046
4011.64548	0.04051
4009.71681	0.04055
4007.78813	0.04063
4005.85946	0.04073
4003.93078	0.04084
4002.00210	0.04094
4000.07343	0.04102
3998.14475	0.04109
3996.21608	0.04115
3994.28740	0.04121
3992.35873	0.04128
3990.43005	0.04135
3988.50137	0.04143
3986.57270	0.04152
3984.64402	0.04161
3982.71535	0.04169
3980.78667	0.04175
3978.85800	0.04183
3976.92932	0.04191
3975.00064	0.04200
3973.07197	0.04207
3971.14329	0.04215
3969.21462	0.04223
3967.28594	0.04232
3965.35727	0.04240
3963.42859	0.04246
3961.49991	0.04251
3959.57124	0.04258
3957.64256	0.04268
3955.71389	0.04278
3953.78521	0.04285
3951.85654	0.04291
3949.92786	0.04299
3947.99918	0.04308
3946.07051	0.04316
3944.14183	0.04323
3942.21316	0.04332
3940.28448	0.04344
3938.35581	0.04353
3936.42713	0.04359
3934.49845	0.04363
3932.56978	0.04369
3930.64110	0.04379
3928.71243	0.04389
3926.78375	0.04396
3924.85508	0.04406
3922.92640	0.04418
3920.99772	0.04427
3919.06905	0.04428
3917.14037	0.04432
3915.21170	0.04442
3913.28302	0.04455
3911.35435	0.04465
3909.42567	0.04472
3907.49699	0.04475
3905.56832	0.04475
3903.63964	0.04475
3901.71097	0.04478
3899.78229	0.04488
3897.85362	0.04508
3895.92494	0.04527
3893.99626	0.04533
3892.06759	0.04534
3890.13891	0.04544
3888.21024	0.04557
3886.28156	0.04565
3884.35289	0.04572
3882.42421	0.04578
3880.49553	0.04584
3878.56686	0.04600
3876.63818	0.04616
3874.70951	0.04622
3872.78083	0.04622
3870.85216	0.04618
3868.92348	0.04622
3866.99480	0.04635
3865.06613	0.04648
3863.13745	0.04661
3861.20878	0.04676
3859.28010	0.04686
3857.35143	0.04675
3855.42275	0.04645
3853.49407	0.04644
3851.56540	0.04688
3849.63672	0.04731
3847.70805	0.04749
3845.77937	0.04753
3843.85070	0.04755
3841.92202	0.04760
3839.99334	0.04764
3838.06467	0.04771
3836.13599	0.04781
3834.20732	0.04790
3832.27864	0.04801
3830.34997	0.04816
3828.42129	0.04832
3826.49261	0.04844
3824.56394	0.04847
3822.63526	0.04842
3820.70659	0.04844
3818.77791	0.04855
3816.84924	0.04865
3814.92056	0.04883
3812.99188	0.04908
3811.06321	0.04923
3809.13453	0.04927
3807.20586	0.04932
3805.27718	0.04937
3803.34851	0.04933
3801.41983	0.04933
3799.49115	0.04953
3797.56248	0.04976
3795.63380	0.04994
3793.70513	0.05011
3791.77645	0.05022
3789.84778	0.05027
3787.91910	0.05033
3785.99042	0.05043
3784.06175	0.05051
3782.13307	0.05055
3780.20440	0.05058
3778.27572	0.05071
3776.34705	0.05090
3774.41837	0.05102
3772.48969	0.05106
3770.56102	0.05111
3768.63234	0.05122
3766.70367	0.05134
3764.77499	0.05141
3762.84632	0.05146
3760.91764	0.05149
3758.98896	0.05154
3757.06029	0.05162
3755.13161	0.05165
3753.20294	0.05154
3751.27426	0.05143
3749.34559	0.05151
3747.41691	0.05162
3745.48823	0.05164
3743.55956	0.05185
3741.63088	0.05223
3739.70221	0.05243
3737.77353	0.05241
3735.84486	0.05241
3733.91618	0.05255
3731.98750	0.05278
3730.05883	0.05296
3728.13015	0.05303
3726.20148	0.05309
3724.27280	0.05322
3722.34413	0.05333
3720.41545	0.05343
3718.48677	0.05357
3716.55810	0.05368
3714.62942	0.05371
3712.70075	0.05371
3710.77207	0.05380
3708.84340	0.05400
3706.91472	0.05422
3704.98604	0.05435
3703.05737	0.05440
3701.12869	0.05448
3699.20002	0.05461
3697.27134	0.05472
3695.34267	0.05481
3693.41399	0.05484
3691.48531	0.05478
3689.55664	0.05474
3687.62796	0.05488
3685.69929	0.05516
3683.77061	0.05536
3681.84194	0.05546
3679.91326	0.05550
3677.98458	0.05546
3676.05591	0.05544
3674.12723	0.05552
3672.19856	0.05560
3670.26988	0.05568
3668.34121	0.05590
3666.41253	0.05616
3664.48385	0.05632
3662.55518	0.05640
3660.62650	0.05645
3658.69783	0.05649
3656.76915	0.05656
3654.84048	0.05664
3652.91180	0.05658
3650.98312	0.05642
3649.05445	0.05633
3647.12577	0.05646
3645.19710	0.05676
3643.26842	0.05703
3641.33975	0.05720
3639.41107	0.05734
3637.48239	0.05747
3635.55372	0.05756
3633.62504	0.05758
3631.69637	0.05745
3629.76769	0.05730
3627.83902	0.05742
3625.91034	0.05776
3623.98166	0.05797
3622.05299	0.05799
3620.12431	0.05796
3618.19564	0.05802
3616.26696	0.05813
3614.33829	0.05820
3612.40961	0.05821
3610.48093	0.05823
3608.55226	0.05834
3606.62358	0.05853
3604.69491	0.05870
3602.76623	0.05878
3600.83756	0.05882
3598.90888	0.05887
3596.98020	0.05894
3595.05153	0.05901
3593.12285	0.05910
3591.19418	0.05916
3589.26550	0.05913
3587.33683	0.05913
3585.40815	0.05929
3583.47947	0.05949
3581.55080	0.05962
3579.62212	0.05969
3577.69345	0.05979
3575.76477	0.05991
3573.83610	0.06001
3571.90742	0.06001
3569.97874	0.05994
3568.05007	0.05992
3566.12139	0.06006
3564.19272	0.06024
3562.26404	0.06036
3560.33537	0.06047
3558.40669	0.06059
3556.47801	0.06069
3554.54934	0.06073
3552.62066	0.06077
3550.69199	0.06084
3548.76331	0.06090
3546.83464	0.06093
3544.90596	0.06102
3542.97728	0.06113
3541.04861	0.06119
3539.11993	0.06123
3537.19126	0.06133
3535.26258	0.06143
3533.33391	0.06149
3531.40523	0.06151
3529.47655	0.06154
3527.54788	0.06158
3525.61920	0.06162
3523.69053	0.06165
3521.76185	0.06170
3519.83318	0.06176
3517.90450	0.06182
3515.97582	0.06188
3514.04715	0.06193
3512.11847	0.06195
3510.18980	0.06198
3508.26112	0.06202
3506.33245	0.06204
3504.40377	0.06202
3502.47509	0.06203
3500.54642	0.06208
3498.61774	0.06212
3496.68907	0.06215
3494.76039	0.06222
3492.83172	0.06230
3490.90304	0.06231
3488.97436	0.06231
3487.04569	0.06234
3485.11701	0.06240
3483.18834	0.06244
3481.25966	0.06246
3479.33099	0.06253
3477.40231	0.06264
3475.47363	0.06273
3473.54496	0.06280
3471.61628	0.06287
3469.68761	0.06295
3467.75893	0.06305
3465.83026	0.06316
3463.90158	0.06326
3461.97290	0.06337
3460.04423	0.06347
3458.11555	0.06353
3456.18688	0.06362
3454.25820	0.06375
3452.32953	0.06387
3450.40085	0.06394
3448.47217	0.06400
3446.54350	0.06410
3444.61482	0.06425
3442.68615	0.06438
3440.75747	0.06451
3438.82880	0.06466
3436.90012	0.06483
3434.97144	0.06500
3433.04277	0.06517
3431.11409	0.06537
3429.18542	0.06560
3427.25674	0.06580
3425.32807	0.06599
3423.39939	0.06616
3421.47071	0.06632
3419.54204	0.06650
3417.61336	0.06671
3415.68469	0.06690
3413.75601	0.06707
3411.82734	0.06719
3409.89866	0.06733
3407.96998	0.06749
3406.04131	0.06763
3404.11263	0.06775
3402.18396	0.06788
3400.25528	0.06801
3398.32661	0.06814
3396.39793	0.06828
3394.46925	0.06840
3392.54058	0.06853
3390.61190	0.06869
3388.68323	0.06886
3386.75455	0.06902
3384.82588	0.06914
3382.89720	0.06924
3380.96852	0.06938
3379.03985	0.06953
3377.11117	0.06964
3375.18250	0.06975
3373.25382	0.06987
3371.32515	0.07001
3369.39647	0.07015
3367.46779	0.07030
3365.53912	0.07042
3363.61044	0.07053
3361.68177	0.07066
3359.75309	0.07082
3357.82442	0.07095
3355.89574	0.07107
3353.96706	0.07119
3352.03839	0.07129
3350.10971	0.07141
3348.18104	0.07155
3346.25236	0.07169
3344.32369	0.07182
3342.39501	0.07193
3340.46633	0.07203
3338.53766	0.07214
3336.60898	0.07229
3334.68031	0.07243
3332.75163	0.07257
3330.82296	0.07272
3328.89428	0.07286
3326.96560	0.07297
3325.03693	0.07310
3323.10825	0.07325
3321.17958	0.07338
3319.25090	0.07350
3317.32223	0.07362
3315.39355	0.07373
3313.46487	0.07384
3311.53620	0.07396
3309.60752	0.07408
3307.67885	0.07418
3305.75017	0.07429
3303.82150	0.07446
3301.89282	0.07464
3299.96414	0.07480
3298.03547	0.07493
3296.10679	0.07507
3294.17812	0.07522
3292.24944	0.07535
3290.32077	0.07549
3288.39209	0.07563
3286.46341	0.07576
3284.53474	0.07588
3282.60606	0.07601
3280.67739	0.07614
3278.74871	0.07625
3276.82004	0.07640
3274.89136	0.07657
3272.96268	0.07672
3271.03401	0.07686
3269.10533	0.07699
3267.17666	0.07714
3265.24798	0.07729
3263.31931	0.07742
3261.39063	0.07755
3259.46195	0.07768
3257.53328	0.07780
3255.60460	0.07793
3253.67593	0.07807
3251.74725	0.07824
3249.81858	0.07842
3247.88990	0.07856
3245.96122	0.07868
3244.03255	0.07883
3242.10387	0.07898
3240.17520	0.07913
3238.24652	0.07926
3236.31785	0.07938
3234.38917	0.07949
3232.46049	0.07961
3230.53182	0.07975
3228.60314	0.07988
3226.67447	0.08005
3224.74579	0.08023
3222.81712	0.08038
3220.88844	0.08050
3218.95976	0.08061
3217.03109	0.08073
3215.10241	0.08086
3213.17374	0.08101
3211.24506	0.08113
3209.31639	0.08125
3207.38771	0.08141
3205.45903	0.08157
3203.53036	0.08172
3201.60168	0.08186
3199.67301	0.08199
3197.74433	0.08214
3195.81566	0.08231
3193.88698	0.08248
3191.95830	0.08263
3190.02963	0.08277
3188.10095	0.08294
3186.17228	0.08311
3184.24360	0.08325
3182.31493	0.08336
3180.38625	0.08348
3178.45757	0.08363
3176.52890	0.08377
3174.60022	0.08390
3172.67155	0.08405
3170.74287	0.08422
3168.81420	0.08440
3166.88552	0.08457
3164.95684	0.08471
3163.02817	0.08482
3161.09949	0.08494
3159.17082	0.08509
3157.24214	0.08522
3155.31347	0.08536
3153.38479	0.08552
3151.45611	0.08569
3149.52744	0.08587
3147.59876	0.08602
3145.67009	0.08612
3143.74141	0.08622
3141.81274	0.08636
3139.88406	0.08649
3137.95538	0.08661
3136.02671	0.08676
3134.09803	0.08695
3132.16936	0.08712
3130.24068	0.08729
3128.31201	0.08744
3126.38333	0.08756
3124.45465	0.08767
3122.52598	0.08780
3120.59730	0.08794
3118.66863	0.08810
3116.73995	0.08823
3114.81128	0.08833
3112.88260	0.08846
3110.95392	0.08863
3109.02525	0.08879
3107.09657	0.08895
3105.16790	0.08910
3103.23922	0.08925
3101.31055	0.08942
3099.38187	0.08957
3097.45319	0.08970
3095.52452	0.08987
3093.59584	0.09004
3091.66717	0.09016
3089.73849	0.09027
3087.80982	0.09042
3085.88114	0.09056
3083.95246	0.09069
3082.02379	0.09082
3080.09511	0.09095
3078.16644	0.09110
3076.23776	0.09124
3074.30909	0.09136
3072.38041	0.09149
3070.45173	0.09163
3068.52306	0.09178
3066.59438	0.09192
3064.66571	0.09206
3062.73703	0.09222
3060.80836	0.09237
3058.87968	0.09250
3056.95100	0.09264
3055.02233	0.09279
3053.09365	0.09295
3051.16498	0.09310
3049.23630	0.09325
3047.30763	0.09340
3045.37895	0.09354
3043.45027	0.09368
3041.52160	0.09381
3039.59292	0.09396
3037.66425	0.09412
3035.73557	0.09426
3033.80690	0.09438
3031.87822	0.09452
3029.94954	0.09468
3028.02087	0.09483
3026.09219	0.09497
3024.16352	0.09512
3022.23484	0.09527
3020.30617	0.09541
3018.37749	0.09553
3016.44881	0.09565
3014.52014	0.09578
3012.59146	0.09590
3010.66279	0.09602
3008.73411	0.09616
3006.80544	0.09631
3004.87676	0.09647
3002.94808	0.09664
3001.01941	0.09680
2999.09073	0.09693
2997.16206	0.09708
2995.23338	0.09724
2993.30471	0.09737
2991.37603	0.09749
2989.44735	0.09762
2987.51868	0.09772
2985.59000	0.09778
2983.66133	0.09785
2981.73265	0.09794
2979.80398	0.09803
2977.87530	0.09807
2975.94662	0.09809
2974.01795	0.09811
2972.08927	0.09814
2970.16060	0.09814
2968.23192	0.09813
2966.30325	0.09815
2964.37457	0.09818
2962.44589	0.09826
2960.51722	0.09839
2958.58854	0.09858
2956.65987	0.09880
2954.73119	0.09901
2952.80252	0.09919
2950.87384	0.09935
2948.94516	0.09950
2947.01649	0.09960
2945.08781	0.09969
2943.15914	0.09976
2941.23046	0.09981
2939.30179	0.09984
2937.37311	0.09984
2935.44443	0.09983
2933.51576	0.09981
2931.58708	0.09976
2929.65841	0.09971
2927.72973	0.09971
2925.80106	0.09975
2923.87238	0.09980
2921.94370	0.09981
2920.01503	0.09983
2918.08635	0.09997
2916.15768	0.10026
2914.22900	0.10070
2912.30033	0.10121
2910.37165	0.10165
2908.44297	0.10202
2906.51430	0.10235
2904.58562	0.10265
2902.65695	0.10289
2900.72827	0.10308
2898.79960	0.10326
2896.87092	0.10347
2894.94224	0.10369
2893.01357	0.10390
2891.08489	0.10408
2889.15622	0.10425
2887.22754	0.10443
2885.29887	0.10461
2883.37019	0.10475
2881.44151	0.10488
2879.51284	0.10502
2877.58416	0.10518
2875.65549	0.10533
2873.72681	0.10547
2871.79814	0.10560
2869.86946	0.10573
2867.94078	0.10587
2866.01211	0.10600
2864.08343	0.10610
2862.15476	0.10616
2860.22608	0.10620
2858.29741	0.10622
2856.36873	0.10622
2854.44005	0.10619
2852.51138	0.10620
2850.58270	0.10630
2848.65403	0.10657
2846.72535	0.10698
2844.79668	0.10747
2842.86800	0.10794
2840.93932	0.10831
2839.01065	0.10858
2837.08197	0.10880
2835.15330	0.10901
2833.22462	0.10923
2831.29595	0.10944
2829.36727	0.10961
2827.43859	0.10976
2825.50992	0.10992
2823.58124	0.11010
2821.65257	0.11031
2819.72389	0.11049
2817.79522	0.11064
2815.86654	0.11079
2813.93786	0.11096
2812.00919	0.11113
2810.08051	0.11129
2808.15184	0.11143
2806.22316	0.11158
2804.29449	0.11174
2802.36581	0.11189
2800.43713	0.11204
2798.50846	0.11219
2796.57978	0.11233
2794.65111	0.11249
2792.72243	0.11266
2790.79376	0.11282
2788.86508	0.11298
2786.93640	0.11314
2785.00773	0.11332
2783.07905	0.11351
2781.15038	0.11368
2779.22170	0.11382
2777.29303	0.11394
2775.36435	0.11406
2773.43567	0.11420
2771.50700	0.11439
2769.57832	0.11459
2767.64965	0.11476
2765.72097	0.11487
2763.79230	0.11499
2761.86362	0.11514
2759.93494	0.11532
2758.00627	0.11547
2756.07759	0.11561
2754.14892	0.11576
2752.22024	0.11593
2750.29157	0.11609
2748.36289	0.11626
2746.43421	0.11644
2744.50554	0.11660
2742.57686	0.11673
2740.64819	0.11684
2738.71951	0.11695
2736.79084	0.11710
2734.86216	0.11728
2732.93348	0.11745
2731.00481	0.11761
2729.07613	0.11777
2727.14746	0.11793
2725.21878	0.11809
2723.29011	0.11825
2721.36143	0.11840
2719.43275	0.11853
2717.50408	0.11867
2715.57540	0.11883
2713.64673	0.11900
2711.71805	0.11917
2709.78938	0.11931
2707.86070	0.11942
2705.93202	0.11953
2704.00335	0.11965
2702.07467	0.11981
2700.14600	0.11998
2698.21732	0.12014
2696.28865	0.12028
2694.35997	0.12043
2692.43129	0.12060
2690.50262	0.12076
2688.57394	0.12091
2686.64527	0.12106
2684.71659	0.12119
2682.78792	0.12133
2680.85924	0.12148
2678.93056	0.12163
2677.00189	0.12178
2675.07321	0.12192
2673.14454	0.12208
2671.21586	0.12226
2669.28719	0.12243
2667.35851	0.12258
2665.42983	0.12272
2663.50116	0.12287
2661.57248	0.12301
2659.64381	0.12312
2657.71513	0.12323
2655.78646	0.12337
2653.85778	0.12353
2651.92910	0.12370
2650.00043	0.12388
2648.07175	0.12406
2646.14308	0.12422
2644.21440	0.12439
2642.28573	0.12456
2640.35705	0.12472
2638.42837	0.12486
2636.49970	0.12500
2634.57102	0.12514
2632.64235	0.12531
2630.71367	0.12551
2628.78500	0.12568
2626.85632	0.12583
2624.92764	0.12600
2622.99897	0.12618
2621.07029	0.12631
2619.14162	0.12643
2617.21294	0.12654
2615.28427	0.12669
2613.35559	0.12688
2611.42691	0.12706
2609.49824	0.12723
2607.56956	0.12743
2605.64089	0.12761
2603.71221	0.12776
2601.78354	0.12790
2599.85486	0.12804
2597.92618	0.12819
2595.99751	0.12835
2594.06883	0.12854
2592.14016	0.12873
2590.21148	0.12890
2588.28281	0.12905
2586.35413	0.12919
2584.42545	0.12933
2582.49678	0.12951
2580.56810	0.12971
2578.63943	0.12988
2576.71075	0.13003
2574.78208	0.13019
2572.85340	0.13033
2570.92472	0.13045
2568.99605	0.13056
2567.06737	0.13070
2565.13870	0.13084
2563.21002	0.13099
2561.28135	0.13117
2559.35267	0.13135
2557.42399	0.13150
2555.49532	0.13167
2553.56664	0.13183
2551.63797	0.13199
2549.70929	0.13215
2547.78062	0.13231
2545.85194	0.13248
2543.92326	0.13263
2541.99459	0.13276
2540.06591	0.13290
2538.13724	0.13304
2536.20856	0.13319
2534.27989	0.13337
2532.35121	0.13355
2530.42253	0.13369
2528.49386	0.13382
2526.56518	0.13397
2524.63651	0.13413
2522.70783	0.13429
2520.77916	0.13445
2518.85048	0.13459
2516.92181	0.13475
2514.99313	0.13491
2513.06445	0.13508
2511.13578	0.13524
2509.20710	0.13542
2507.27843	0.13561
2505.34975	0.13581
2503.42108	0.13600
2501.49240	0.13617
2499.56372	0.13633
2497.63505	0.13652
2495.70637	0.13671
2493.77770	0.13687
2491.84902	0.13701
2489.92035	0.13716
2487.99167	0.13732
2486.06299	0.13747
2484.13432	0.13762
2482.20564	0.13783
2480.27697	0.13804
2478.34829	0.13822
2476.41962	0.13839
2474.49094	0.13857
2472.56226	0.13877
2470.63359	0.13896
2468.70491	0.13912
2466.77624	0.13926
2464.84756	0.13939
2462.91889	0.13953
2460.99021	0.13968
2459.06153	0.13987
2457.13286	0.14005
2455.20418	0.14023
2453.27551	0.14038
2451.34683	0.14053
2449.41816	0.14071
2447.48948	0.14092
2445.56080	0.14110
2443.63213	0.14123
2441.70345	0.14137
2439.77478	0.14155
2437.84610	0.14172
2435.91743	0.14189
2433.98875	0.14206
2432.06007	0.14224
2430.13140	0.14240
2428.20272	0.14256
2426.27405	0.14272
2424.34537	0.14289
2422.41670	0.14305
2420.48802	0.14319
2418.55934	0.14335
2416.63067	0.14354
2414.70199	0.14368
2412.77332	0.14381
2410.84464	0.14396
2408.91597	0.14412
2406.98729	0.14427
2405.05861	0.14443
2403.12994	0.14459
2401.20126	0.14478
2399.27259	0.14496
2397.34391	0.14512
2395.41524	0.14529
2393.48656	0.14548
2391.55788	0.14562
2389.62921	0.14573
2387.70053	0.14587
2385.77186	0.14605
2383.84318	0.14622
2381.91451	0.14635
2379.98583	0.14643
2378.05715	0.14648
2376.12848	0.14653
2374.19980	0.14655
2372.27113	0.14655
2370.34245	0.14656
2368.41378	0.14664
2366.48510	0.14680
2364.55642	0.14695
2362.62775	0.14709
2360.69907	0.14724
2358.77040	0.14741
2356.84172	0.14763
2354.91305	0.14790
2352.98437	0.14822
2351.05569	0.14856
2349.12702	0.14881
2347.19834	0.14890
2345.26967	0.14892
2343.34099	0.14897
2341.41232	0.14905
2339.48364	0.14915
2337.55496	0.14928
2335.62629	0.14943
2333.69761	0.14959
2331.76894	0.14979
2329.84026	0.15002
2327.91159	0.15026
2325.98291	0.15051
2324.05423	0.15075
2322.12556	0.15098
2320.19688	0.15120
2318.26821	0.15142
2316.33953	0.15163
2314.41086	0.15184
2312.48218	0.15207
2310.55350	0.15229
2308.62483	0.15250
2306.69615	0.15269
2304.76748	0.15288
2302.83880	0.15306
2300.91013	0.15322
2298.98145	0.15337
2297.05277	0.15351
2295.12410	0.15366
2293.19542	0.15384
2291.26675	0.15404
2289.33807	0.15425
2287.40940	0.15442
2285.48072	0.15458
2283.55204	0.15475
2281.62337	0.15493
2279.69469	0.15509
2277.76602	0.15525
2275.83734	0.15539
2273.90867	0.15554
2271.97999	0.15572
2270.05131	0.15591
2268.12264	0.15609
2266.19396	0.15627
2264.26529	0.15643
2262.33661	0.15657
2260.40794	0.15672
2258.47926	0.15689
2256.55058	0.15706
2254.62191	0.15721
2252.69323	0.15737
2250.76456	0.15757
2248.83588	0.15777
2246.90721	0.15795
2244.97853	0.15809
2243.04985	0.15821
2241.12118	0.15835
2239.19250	0.15852
2237.26383	0.15871
2235.33515	0.15892
2233.40648	0.15911
2231.47780	0.15925
2229.54912	0.15940
2227.62045	0.15958
2225.69177	0.15977
2223.76310	0.15996
2221.83442	0.16012
2219.90575	0.16025
2217.97707	0.16037
2216.04839	0.16052
2214.11972	0.16070
2212.19104	0.16088
2210.26237	0.16105
2208.33369	0.16121
2206.40502	0.16133
2204.47634	0.16146
2202.54766	0.16164
2200.61899	0.16185
2198.69031	0.16203
2196.76164	0.16217
2194.83296	0.16228
2192.90429	0.16240
2190.97561	0.16256
2189.04693	0.16274
2187.11826	0.16292
2185.18958	0.16310
2183.26091	0.16331
2181.33223	0.16353
2179.40356	0.16372
2177.47488	0.16387
2175.54620	0.16399
2173.61753	0.16412
2171.68885	0.16427
2169.76018	0.16442
2167.83150	0.16456
2165.90283	0.16474
2163.97415	0.16495
2162.04547	0.16514
2160.11680	0.16529
2158.18812	0.16544
2156.25945	0.16563
2154.33077	0.16582
2152.40210	0.16599
2150.47342	0.16614
2148.54474	0.16629
2146.61607	0.16644
2144.68739	0.16659
2142.75872	0.16675
2140.83004	0.16694
2138.90137	0.16713
2136.97269	0.16729
2135.04401	0.16744
2133.11534	0.16761
2131.18666	0.16778
2129.25799	0.16795
2127.32931	0.16811
2125.40064	0.16829
2123.47196	0.16846
2121.54328	0.16863
2119.61461	0.16881
2117.68593	0.16899
2115.75726	0.16915
2113.82858	0.16931
2111.89991	0.16947
2109.97123	0.16961
2108.04255	0.16978
2106.11388	0.17000
2104.18520	0.17022
2102.25653	0.17040
2100.32785	0.17054
2098.39918	0.17063
2096.47050	0.17073
2094.54182	0.17086
2092.61315	0.17103
2090.68447	0.17123
2088.75580	0.17143
2086.82712	0.17160
2084.89845	0.17176
2082.96977	0.17193
2081.04109	0.17212
2079.11242	0.17234
2077.18374	0.17253
2075.25507	0.17266
2073.32639	0.17279
2071.39772	0.17296
2069.46904	0.17313
2067.54036	0.17328
2065.61169	0.17346
2063.68301	0.17363
2061.75434	0.17379
2059.82566	0.17395
2057.89699	0.17414
2055.96831	0.17432
2054.03963	0.17445
2052.11096	0.17456
2050.18228	0.17473
2048.25361	0.17497
2046.32493	0.17521
2044.39626	0.17534
2042.46758	0.17543
2040.53890	0.17560
2038.61023	0.17580
2036.68155	0.17597
2034.75288	0.17615
2032.82420	0.17634
2030.89553	0.17649
2028.96685	0.17663
2027.03817	0.17681
2025.10950	0.17704
2023.18082	0.17725
2021.25215	0.17742
2019.32347	0.17752
2017.39480	0.17762
2015.46612	0.17780
2013.53744	0.17802
2011.60877	0.17822
2009.68009	0.17841
2007.75142	0.17857
2005.82274	0.17871
2003.89407	0.17886
2001.96539	0.17902
2000.03671	0.17915
1998.10804	0.17929
1996.17936	0.17943
1994.25069	0.17953
1992.32201	0.17964
1990.39334	0.17986
1988.46466	0.18011
1986.53598	0.18032
1984.60731	0.18049
1982.67863	0.18063
1980.74996	0.18073
1978.82128	0.18082
1976.89261	0.18095
1974.96393	0.18110
1973.03525	0.18125
1971.10658	0.18142
1969.17790	0.18159
1967.24923	0.18172
1965.32055	0.18185
1963.39188	0.18200
1961.46320	0.18213
1959.53452	0.18227
1957.60585	0.18241
1955.67717	0.18255
1953.74850	0.18270
1951.81982	0.18286
1949.89115	0.18303
1947.96247	0.18317
1946.03379	0.18324
1944.10512	0.18330
1942.17644	0.18349
1940.24777	0.18382
1938.31909	0.18411
1936.39042	0.18429
1934.46174	0.18445
1932.53306	0.18462
1930.60439	0.18475
1928.67571	0.18489
1926.74704	0.18503
1924.81836	0.18512
1922.88969	0.18522
1920.96101	0.18535
1919.03233	0.18546
1917.10366	0.18566
1915.17498	0.18595
1913.24631	0.18618
1911.31763	0.18632
1909.38896	0.18647
1907.46028	0.18664
1905.53160	0.18682
1903.60293	0.18698
1901.67425	0.18712
1899.74558	0.18728
1897.81690	0.18744
1895.88823	0.18756
1893.95955	0.18765
1892.03087	0.18777
1890.10220	0.18792
1888.17352	0.18815
1886.24485	0.18836
1884.31617	0.18851
1882.38750	0.18872
1880.45882	0.18899
1878.53014	0.18919
1876.60147	0.18927
1874.67279	0.18932
1872.74412	0.18929
1870.81544	0.18914
1868.88677	0.18913
1866.95809	0.18946
1865.02941	0.18989
1863.10074	0.19021
1861.17206	0.19045
1859.24339	0.19065
1857.31471	0.19085
1855.38604	0.19104
1853.45736	0.19122
1851.52868	0.19139
1849.60001	0.19147
1847.67133	0.19143
1845.74266	0.19138
1843.81398	0.19155
1841.88531	0.19196
1839.95663	0.19231
1838.02795	0.19247
1836.09928	0.19264
1834.17060	0.19283
1832.24193	0.19294
1830.31325	0.19300
1828.38458	0.19313
1826.45590	0.19329
1824.52722	0.19347
1822.59855	0.19369
1820.66987	0.19393
1818.74120	0.19410
1816.81252	0.19423
1814.88385	0.19433
1812.95517	0.19440
1811.02649	0.19450
1809.09782	0.19470
1807.16914	0.19494
1805.24047	0.19507
1803.31179	0.19505
1801.38312	0.19507
1799.45444	0.19526
1797.52576	0.19545
1795.59709	0.19542
1793.66841	0.19530
1791.73974	0.19540
1789.81106	0.19579
1787.88239	0.19612
1785.95371	0.19621
1784.02503	0.19627
1782.09636	0.19637
1780.16768	0.19650
1778.23901	0.19669
1776.31033	0.19682
1774.38166	0.19677
1772.45298	0.19666
1770.52430	0.19672
1768.59563	0.19699
1766.66695	0.19728
1764.73828	0.19740
1762.80960	0.19737
1760.88093	0.19746
1758.95225	0.19766
1757.02357	0.19779
1755.09490	0.19770
1753.16622	0.19722
1751.23755	0.19676
1749.30887	0.19688
1747.38020	0.19724
1745.45152	0.19738
1743.52284	0.19735
1741.59417	0.19728
1739.66549	0.19735
1737.73682	0.19753
1735.80814	0.19751
1733.87947	0.19746
1731.95079	0.19775
1730.02211	0.19817
1728.09344	0.19850
1726.16476	0.19874
1724.23609	0.19887
1722.30741	0.19888
1720.37874	0.19862
1718.45006	0.19825
1716.52138	0.19835
1714.59271	0.19893
1712.66403	0.19946
1710.73536	0.19977
1708.80668	0.19984
1706.87801	0.19975
1704.94933	0.19970
1703.02065	0.19956
1701.09198	0.19934
1699.16330	0.19939
1697.23463	0.19969
1695.30595	0.19999
1693.37728	0.20022
1691.44860	0.20027
1689.51992	0.20025
1687.59125	0.20022
1685.66257	0.19995
1683.73390	0.19978
1681.80522	0.20009
1679.87655	0.20047
1677.94787	0.20035
1676.01919	0.19992
1674.09052	0.19980
1672.16184	0.20001
1670.23317	0.20024
1668.30449	0.20055
1666.37582	0.20083
1664.44714	0.20087
1662.51846	0.20090
1660.58979	0.20112
1658.66111	0.20130
1656.73244	0.20104
1654.80376	0.20028
1652.87509	0.19977
1650.94641	0.20009
1649.01773	0.20048
1647.08906	0.20069
1645.16038	0.20116
1643.23171	0.20164
1641.30303	0.20175
1639.37436	0.20156
1637.44568	0.20133
1635.51700	0.20142
1633.58833	0.20181
1631.65965	0.20210
1629.73098	0.20210
1627.80230	0.20197
1625.87363	0.20178
1623.94495	0.20147
1622.01627	0.20119
1620.08760	0.20112
1618.15892	0.20129
1616.23025	0.20184
1614.30157	0.20261
1612.37290	0.20314
1610.44422	0.20341
1608.51554	0.20364
1606.58687	0.20392
1604.65819	0.20420
1602.72952	0.20440
1600.80084	0.20458
1598.87217	0.20480
1596.94349	0.20498
1595.01481	0.20508
1593.08614	0.20522
1591.15746	0.20544
1589.22879	0.20566
1587.30011	0.20586
1585.37144	0.20607
1583.44276	0.20624
1581.51408	0.20633
1579.58541	0.20622
1577.65673	0.20588
1575.72806	0.20586
1573.79938	0.20640
1571.87071	0.20678
1569.94203	0.20680
1568.01335	0.20686
1566.08468	0.20702
1564.15600	0.20708
1562.22733	0.20672
1560.29865	0.20612
1558.36998	0.20614
1556.44130	0.20689
1554.51262	0.20761
1552.58395	0.20794
1550.65527	0.20805
1548.72660	0.20811
1546.79792	0.20799
1544.86925	0.20764
1542.94057	0.20738
1541.01189	0.20749
1539.08322	0.20804
1537.15454	0.20855
1535.22587	0.20851
1533.29719	0.20844
1531.36852	0.20881
1529.43984	0.20909
1527.51116	0.20895
1525.58249	0.20870
1523.65381	0.20846
1521.72514	0.20839
1519.79646	0.20866
1517.86779	0.20899
1515.93911	0.20922
1514.01043	0.20943
1512.08176	0.20951
1510.15308	0.20912
1508.22441	0.20846
1506.29573	0.20848
1504.36706	0.20936
1502.43838	0.21000
1500.50970	0.20988
1498.58103	0.20946
1496.65235	0.20937
1494.72368	0.20968
1492.79500	0.20988
1490.86633	0.20968
1488.93765	0.20944
1487.00897	0.20950
1485.08030	0.20971
1483.15162	0.20976
1481.22295	0.20958
1479.29427	0.20919
1477.36560	0.20858
1475.43692	0.20799
1473.50824	0.20763
1471.57957	0.20755
1469.65089	0.20758
1467.72222	0.20734
1465.79354	0.20690
1463.86487	0.20674
1461.93619	0.20674
1460.00751	0.20623
1458.07884	0.20541
1456.15016	0.20525
1454.22149	0.20583
1452.29281	0.20633
1450.36414	0.20647
1448.43546	0.20647
1446.50678	0.20652
1444.57811	0.20668
1442.64943	0.20686
1440.72076	0.20698
1438.79208	0.20693
1436.86341	0.20691
1434.93473	0.20715
1433.00605	0.20743
1431.07738	0.20755
1429.14870	0.20765
1427.22003	0.20777
1425.29135	0.20778
1423.36268	0.20762
1421.43400	0.20714
1419.50532	0.20670
1417.57665	0.20701
1415.64797	0.20769
1413.71930	0.20802
1411.79062	0.20807
1409.86195	0.20808
1407.93327	0.20805
1406.00459	0.20796
1404.07592	0.20789
1402.14724	0.20784
1400.21857	0.20768
1398.28989	0.20752
1396.36122	0.20741
1394.43254	0.20743
1392.50386	0.20756
1390.57519	0.20754
1388.64651	0.20728
1386.71784	0.20696
1384.78916	0.20679
1382.86049	0.20681
1380.93181	0.20692
1379.00313	0.20695
1377.07446	0.20679
1375.14578	0.20656
1373.21711	0.20651
1371.28843	0.20661
1369.35976	0.20664
1367.43108	0.20662
1365.50240	0.20656
1363.57373	0.20643
1361.64505	0.20640
1359.71638	0.20657
1357.78770	0.20674
1355.85903	0.20680
1353.93035	0.20687
1352.00167	0.20697
1350.07300	0.20705
1348.14432	0.20712
1346.21565	0.20720
1344.28697	0.20726
1342.35830	0.20721
1340.42962	0.20707
1338.50094	0.20697
1336.57227	0.20695
1334.64359	0.20694
1332.71492	0.20689
1330.78624	0.20680
1328.85757	0.20668
1326.92889	0.20652
1325.00021	0.20633
1323.07154	0.20612
1321.14286	0.20590
1319.21419	0.20569
1317.28551	0.20554
1315.35684	0.20541
1313.42816	0.20521
1311.49948	0.20497
1309.57081	0.20478
1307.64213	0.20461
1305.71346	0.20434
1303.78478	0.20400
1301.85611	0.20375
1299.92743	0.20358
1297.99875	0.20340
1296.07008	0.20322
1294.14140	0.20303
1292.21273	0.20284
1290.28405	0.20267
1288.35538	0.20249
1286.42670	0.20226
1284.49802	0.20203
1282.56935	0.20176
1280.64067	0.20149
1278.71200	0.20129
1276.78332	0.20105
1274.85465	0.20065
1272.92597	0.20011
1270.99729	0.19946
1269.06862	0.19859
1267.13994	0.19760
1265.21127	0.19676
1263.28259	0.19620
1261.35392	0.19593
1259.42524	0.19594
1257.49656	0.19610
1255.56789	0.19623
1253.63921	0.19625
1251.71054	0.19614
1249.78186	0.19592
1247.85319	0.19558
1245.92451	0.19522
1243.99583	0.19484
1242.06716	0.19442
1240.13848	0.19393
1238.20981	0.19336
1236.28113	0.19279
1234.35246	0.19223
1232.42378	0.19168
1230.49510	0.19110
1228.56643	0.19050
1226.63775	0.18999
1224.70908	0.18953
1222.78040	0.18903
1220.85173	0.18853
1218.92305	0.18808
1216.99437	0.18762
1215.06570	0.18708
1213.13702	0.18648
1211.20835	0.18592
1209.27967	0.18540
1207.35100	0.18480
1205.42232	0.18412
1203.49364	0.18348
1201.56497	0.18291
1199.63629	0.18236
1197.70762	0.18177
1195.77894	0.18116
1193.85027	0.18052
1191.92159	0.17985
1189.99291	0.17917
1188.06424	0.17844
1186.13556	0.17760
1184.20689	0.17671
1182.27821	0.17586
1180.34954	0.17505
1178.42086	0.17423
1176.49218	0.17339
1174.56351	0.17254
1172.63483	0.17166
1170.70616	0.17083
1168.77748	0.17002
1166.84881	0.16917
1164.92013	0.16826
1162.99145	0.16733
1161.06278	0.16648
1159.13410	0.16571
1157.20543	0.16493
1155.27675	0.16409
1153.34808	0.16329
1151.41940	0.16246
1149.49072	0.16153
1147.56205	0.16064
1145.63337	0.15986
1143.70470	0.15904
1141.77602	0.15811
1139.84735	0.15708
1137.91867	0.15596
1135.98999	0.15470
1134.06132	0.15328
1132.13264	0.15168
1130.20397	0.14987
1128.27529	0.14778
1126.34662	0.14545
1124.41794	0.14305
1122.48926	0.14072
1120.56059	0.13840
1118.63191	0.13610
1116.70324	0.13396
1114.77456	0.13206
1112.84589	0.13041
1110.91721	0.12901
1108.98853	0.12789
1107.05986	0.12713
1105.13118	0.12671
1103.20251	0.12656
1101.27383	0.12668
1099.34516	0.12709
1097.41648	0.12775
1095.48780	0.12854
1093.55913	0.12939
1091.63045	0.13026
1089.70178	0.13112
1087.77310	0.13189
1085.84443	0.13250
1083.91575	0.13298
1081.98707	0.13334
1080.05840	0.13359
1078.12972	0.13374
1076.20105	0.13386
1074.27237	0.13403
1072.34370	0.13425
1070.41502	0.13444
1068.48634	0.13455
1066.55767	0.13466
1064.62899	0.13487
1062.70032	0.13516
1060.77164	0.13543
1058.84297	0.13564
1056.91429	0.13586
1054.98561	0.13616
1053.05694	0.13651
1051.12826	0.13686
1049.19959	0.13717
1047.27091	0.13750
1045.34224	0.13789
1043.41356	0.13834
1041.48488	0.13875
1039.55621	0.13907
1037.62753	0.13943
1035.69886	0.13989
1033.77018	0.14035
1031.84151	0.14071
1029.91283	0.14098
1027.98415	0.14126
1026.05548	0.14158
1024.12680	0.14190
1022.19813	0.14225
1020.26945	0.14265
1018.34078	0.14308
1016.41210	0.14355
1014.48342	0.14405
1012.55475	0.14460
1010.62607	0.14521
1008.69740	0.14586
1006.76872	0.14647
1004.84005	0.14697
1002.91137	0.14738
1000.98269	0.14774
999.05402	0.14805
997.12534	0.14826
995.19667	0.14840
993.26799	0.14847
991.33932	0.14857
989.41064	0.14873
987.48196	0.14884
985.55329	0.14883
983.62461	0.14875
981.69594	0.14864
979.76726	0.14852
977.83859	0.14838
975.90991	0.14819
973.98123	0.14800
972.05256	0.14788
970.12388	0.14775
968.19521	0.14756
966.26653	0.14739
964.33786	0.14727
962.40918	0.14712
960.48050	0.14691
958.55183	0.14672
956.62315	0.14661
954.69448	0.14646
952.76580	0.14624
950.83713	0.14603
948.90845	0.14580
946.97977	0.14554
945.05110	0.14530
943.12242	0.14508
941.19375	0.14479
939.26507	0.14438
937.33640	0.14390
935.40772	0.14343
933.47904	0.14297
931.55037	0.14245
929.62169	0.14187
927.69302	0.14132
925.76434	0.14082
923.83567	0.14031
921.90699	0.13977
919.97831	0.13921
918.04964	0.13861
916.12096	0.13795
914.19229	0.13723
912.26361	0.13643
910.33494	0.13555
908.40626	0.13475
906.47758	0.13408
904.54891	0.13343
902.62023	0.13277
900.69156	0.13213
898.76288	0.13158
896.83421	0.13119
894.90553	0.13088
892.97685	0.13050
891.04818	0.13000
889.11950	0.12940
887.19083	0.12881
885.26215	0.12834
883.33348	0.12797
881.40480	0.12765
879.47612	0.12730
877.54745	0.12695
875.61877	0.12667
873.69010	0.12650
871.76142	0.12630
869.83275	0.12605
867.90407	0.12581
865.97539	0.12560
864.04672	0.12546
862.11804	0.12538
860.18937	0.12525
858.26069	0.12509
856.33202	0.12492
854.40334	0.12473
852.47466	0.12457
850.54599	0.12438
848.61731	0.12410
846.68864	0.12375
844.75996	0.12344
842.83129	0.12321
840.90261	0.12299
838.97394	0.12263
837.04526	0.12210
835.11658	0.12145
833.18791	0.12066
831.25923	0.11968
829.33056	0.11860
827.40188	0.11752
825.47321	0.11651
823.54453	0.11560
821.61585	0.11486
819.68718	0.11426
817.75850	0.11372
815.82983	0.11327
813.90115	0.11286
811.97248	0.11251
810.04380	0.11220
808.11512	0.11195
806.18645	0.11184
804.25777	0.11182
802.32910	0.11179
800.40042	0.11161
798.47175	0.11112
796.54307	0.11042
794.61439	0.10982
792.68572	0.10938
790.75704	0.10905
788.82837	0.10881
786.89969	0.10854
784.97102	0.10824
783.04234	0.10797
781.11366	0.10775
779.18499	0.10750
777.25631	0.10718
775.32764	0.10689
773.39896	0.10666
771.47029	0.10636
769.54161	0.10593
767.61293	0.10542
765.68426	0.10488
763.75558	0.10439
761.82691	0.10395
759.89823	0.10349
757.96956	0.10299
756.04088	0.10245
754.11220	0.10184
752.18353	0.10117
750.25485	0.10048
748.32618	0.09979
746.39750	0.09910
744.46883	0.09833
742.54015	0.09740
740.61147	0.09647
738.68280	0.09582
736.75412	0.09552
734.82545	0.09543
732.89677	0.09546
730.96810	0.09551
729.03942	0.09553
727.11074	0.09553
725.18207	0.09558
723.25339	0.09574
721.32472	0.09597
719.39604	0.09625
717.46737	0.09654
715.53869	0.09687
713.61001	0.09729
711.68134	0.09769
709.75266	0.09789
707.82399	0.09793
705.89531	0.09793
703.96664	0.09791
702.03796	0.09773
700.10928	0.09730
698.18061	0.09673
696.25193	0.09612
694.32326	0.09545
692.39458	0.09479
690.46591	0.09423
688.53723	0.09376
686.60855	0.09333
684.67988	0.09286
682.75120	0.09228
680.82253	0.09164
678.89385	0.09103
676.96518	0.09047
675.03650	0.08991
673.10782	0.08927
671.17915	0.08844
669.25047	0.08754
667.32180	0.08681
665.39312	0.08618
663.46445	0.08538
661.53577	0.08440
659.60709	0.08341
657.67842	0.08252
655.74974	0.08171
653.82107	0.08088
651.89239	0.08001
649.96372	0.07922
648.03504	0.07848
646.10636	0.07764
644.17769	0.07662
642.24901	0.07556
640.32034	0.07456
638.39166	0.07356
636.46299	0.07243
634.53431	0.07118
632.60563	0.06963
630.67696	0.06730
628.74828	0.06381
626.81961	0.05936
624.89093	0.05475
622.96226	0.05110
621.03358	0.04885
619.10490	0.04756
617.17623	0.04672
615.24755	0.04589
613.31888	0.04487
611.39020	0.04384
609.46153	0.04320
607.53285	0.04313
605.60417	0.04353
603.67550	0.04428
601.74682	0.04526
599.81815	0.04623
597.88947	0.04697
595.96080	0.04752
594.03212	0.04796
592.10344	0.04825
590.17477	0.04834
588.24609	0.04828
586.31742	0.04814
584.38874	0.04799
582.46007	0.04776
580.53139	0.04735
578.60271	0.04683
576.67404	0.04635
574.74536	0.04585
572.81669	0.04522
570.88801	0.04449
568.95934	0.04385
567.03066	0.04330
565.10198	0.04291
563.17331	0.04267
561.24463	0.04239
559.31596	0.04212
557.38728	0.04195
555.45861	0.04177
553.52993	0.04156
551.60125	0.04140
549.67258	0.04131
547.74390	0.04121
545.81523	0.04099
543.88655	0.04069
541.95788	0.04046
540.02920	0.04028
538.10052	0.04000
536.17185	0.03966
534.24317	0.03939
532.31450	0.03924
530.38582	0.03913
528.45715	0.03896
526.52847	0.03876
524.59979	0.03858
522.67112	0.03829
520.74244	0.03769
518.81377	0.03689
516.88509	0.03615
514.95642	0.03560
513.02774	0.03525
511.09906	0.03507
509.17039	0.03493
507.24171	0.03475
505.31304	0.03441
503.38436	0.03394
501.45569	0.03350
499.52701	0.03310
497.59833	0.03265
495.66966	0.03208
493.74098	0.03143
491.81231	0.03078
489.88363	0.03017
487.95496	0.02965
486.02628	0.02919
484.09760	0.02875
482.16893	0.02823
480.24025	0.02759
478.31158	0.02693
476.38290	0.02635
474.45423	0.02584
472.52555	0.02543
470.59687	0.02506
468.66820	0.02459
466.73952	0.02403
464.81085	0.02354
462.88217	0.02329
460.95350	0.02326
459.02482	0.02326
457.09614	0.02322
455.16747	0.02318
453.23879	0.02318
451.31012	0.02325
449.38144	0.02331
447.45277	0.02329
445.52409	0.02324
443.59541	0.02309
441.66674	0.02270
439.73806	0.02216
437.80939	0.02168
435.88071	0.02124
433.95204	0.02067
432.02336	0.01998
430.09468	0.01927
428.16601	0.01863
426.23733	0.01809
424.30866	0.01749
422.37998	0.01672
420.45131	0.01595
418.52263	0.01529
416.59395	0.01466
414.66528	0.01400
412.73660	0.01335
410.80793	0.01274
408.87925	0.01212
406.95058	0.01150
405.02190	0.01091
403.09322	0.01035
401.16455	0.00978
399.23587	0.00921
397.30720	0.00865
395.37852	0.00810
393.44985	0.00753
391.52117	0.00700
389.59249	0.00649
387.66382	0.00603
385.73514	0.00567
383.80647	0.00535
381.87779	0.00497
379.94912	0.00462
378.02044	0.00431
376.09176	0.00401
374.16309	0.00376
372.23441	0.00348
370.30574	0.00305
368.37706	0.00252
