7496.76250	0.00123
7494.83382	0.00124
7492.90514	0.00124
7490.97647	0.00124
7489.04779	0.00124
7487.11912	0.00123
7485.19044	0.00123
7483.26177	0.00123
7481.33309	0.00123
7479.40441	0.00123
7477.47574	0.00122
7475.54706	0.00123
7473.61839	0.00125
7471.68971	0.00127
7469.76104	0.00127
7467.83236	0.00125
7465.90368	0.00125
7463.97501	0.00127
7462.04633	0.00129
7460.11766	0.00130
7458.18898	0.00131
7456.26031	0.00132
7454.33163	0.00132
7452.40295	0.00130
7450.47428	0.00128
7448.54560	0.00127
7446.61693	0.00127
7444.68825	0.00129
7442.75958	0.00131
7440.83090	0.00133
7438.90222	0.00133
7436.97355	0.00133
7435.04487	0.00133
7433.11620	0.00134
7431.18752	0.00134
7429.25885	0.00134
7427.33017	0.00133
7425.40149	0.00133
7423.47282	0.00134
7421.54414	0.00134
7419.61547	0.00134
7417.68679	0.00135
7415.75812	0.00136
7413.82944	0.00137
7411.90076	0.00136
7409.97209	0.00136
7408.04341	0.00136
7406.11474	0.00136
7404.18606	0.00137
7402.25739	0.00137
7400.32871	0.00137
7398.40003	0.00137
7396.47136	0.00138
7394.54268	0.00139
7392.61401	0.00140
7390.68533	0.00141
7388.75666	0.00142
7386.82798	0.00144
7384.89930	0.00144
7382.97063	0.00143
7381.04195	0.00143
7379.11328	0.00143
7377.18460	0.00143
7375.25593	0.00142
7373.32725	0.00142
7371.39857	0.00141
7369.46990	0.00142
7367.54122	0.00144
7365.61255	0.00146
7363.68387	0.00146
7361.75520	0.00147
7359.82652	0.00147
7357.89784	0.00147
7355.96917	0.00147
7354.04049	0.00148
7352.11182	0.00149
7350.18314	0.00148
7348.25447	0.00147
7346.32579	0.00148
7344.39711	0.00149
7342.46844	0.00150
7340.53976	0.00150
7338.61109	0.00149
7336.68241	0.00150
7334.75374	0.00152
7332.82506	0.00152
7330.89638	0.00151
7328.96771	0.00152
7327.03903	0.00153
7325.11036	0.00154
7323.18168	0.00154
7321.25301	0.00154
7319.32433	0.00153
7317.39565	0.00154
7315.46698	0.00154
7313.53830	0.00153
7311.60963	0.00152
7309.68095	0.00152
7307.75228	0.00155
7305.82360	0.00157
7303.89492	0.00158
7301.96625	0.00158
7300.03757	0.00159
7298.10890	0.00159
7296.18022	0.00158
7294.25155	0.00157
7292.32287	0.00158
7290.39419	0.00158
7288.46552	0.00159
7286.53684	0.00161
7284.60817	0.00162
7282.67949	0.00163
7280.75082	0.00162
7278.82214	0.00161
7276.89346	0.00161
7274.96479	0.00162
7273.03611	0.00161
7271.10744	0.00162
7269.17876	0.00163
7267.25009	0.00164
7265.32141	0.00163
7263.39273	0.00163
7261.46406	0.00162
7259.53538	0.00162
7257.60671	0.00162
7255.67803	0.00163
7253.74936	0.00165
7251.82068	0.00166
7249.89200	0.00168
7247.96333	0.00168
7246.03465	0.00168
7244.10598	0.00168
7242.17730	0.00167
7240.24863	0.00167
7238.31995	0.00168
7236.39127	0.00170
7234.46260	0.00171
7232.53392	0.00170
7230.60525	0.00169
7228.67657	0.00170
7226.74790	0.00170
7224.81922	0.00170
7222.89054	0.00172
7220.96187	0.00174
7219.03319	0.00175
7217.10452	0.00175
7215.17584	0.00174
7213.24717	0.00174
7211.31849	0.00176
7209.38981	0.00177
7207.46114	0.00176
7205.53246	0.00174
7203.60379	0.00174
7201.67511	0.00175
7199.74644	0.00177
7197.81776	0.00178
7195.88908	0.00179
7193.96041	0.00181
7192.03173	0.00182
7190.10306	0.00181
7188.17438	0.00180
7186.24571	0.00181
7184.31703	0.00181
7182.38835	0.00182
7180.45968	0.00183
7178.53100	0.00184
7176.60233	0.00185
7174.67365	0.00183
7172.74498	0.00183
7170.81630	0.00185
7168.88762	0.00186
7166.95895	0.00186
7165.03027	0.00186
7163.10160	0.00186
7161.17292	0.00185
7159.24425	0.00185
7157.31557	0.00186
7155.38689	0.00186
7153.45822	0.00185
7151.52954	0.00185
7149.60087	0.00185
7147.67219	0.00186
7145.74352	0.00187
7143.81484	0.00189
7141.88616	0.00191
7139.95749	0.00192
7138.02881	0.00192
7136.10014	0.00191
7134.17146	0.00191
7132.24279	0.00191
7130.31411	0.00190
7128.38543	0.00191
7126.45676	0.00192
7124.52808	0.00194
7122.59941	0.00194
7120.67073	0.00194
7118.74206	0.00196
7116.81338	0.00198
7114.88470	0.00198
7112.95603	0.00196
7111.02735	0.00195
7109.09868	0.00195
7107.17000	0.00196
7105.24133	0.00196
7103.31265	0.00197
7101.38397	0.00198
7099.45530	0.00200
7097.52662	0.00201
7095.59795	0.00200
7093.66927	0.00199
7091.74060	0.00200
7089.81192	0.00201
7087.88324	0.00201
7085.95457	0.00201
7084.02589	0.00201
7082.09722	0.00201
7080.16854	0.00202
7078.23987	0.00204
7076.31119	0.00206
7074.38251	0.00205
7072.45384	0.00203
7070.52516	0.00203
7068.59649	0.00204
7066.66781	0.00205
7064.73914	0.00206
7062.81046	0.00207
7060.88178	0.00207
7058.95311	0.00207
7057.02443	0.00209
7055.09576	0.00210
7053.16708	0.00210
7051.23841	0.00210
7049.30973	0.00210
7047.38105	0.00210
7045.45238	0.00209
7043.52370	0.00209
7041.59503	0.00210
7039.66635	0.00212
7037.73768	0.00213
7035.80900	0.00214
7033.88032	0.00215
7031.95165	0.00216
7030.02297	0.00217
7028.09430	0.00217
7026.16562	0.00216
7024.23695	0.00215
7022.30827	0.00215
7020.37959	0.00216
7018.45092	0.00216
7016.52224	0.00218
7014.59357	0.00220
7012.66489	0.00221
7010.73622	0.00220
7008.80754	0.00219
7006.87886	0.00220
7004.95019	0.00221
7003.02151	0.00222
7001.09284	0.00222
6999.16416	0.00222
6997.23549	0.00222
6995.30681	0.00223
6993.37813	0.00224
6991.44946	0.00225
6989.52078	0.00225
6987.59211	0.00226
6985.66343	0.00227
6983.73476	0.00227
6981.80608	0.00228
6979.87740	0.00229
6977.94873	0.00228
6976.02005	0.00227
6974.09138	0.00228
6972.16270	0.00230
6970.23403	0.00231
6968.30535	0.00231
6966.37667	0.00232
6964.44800	0.00231
6962.51932	0.00232
6960.59065	0.00234
6958.66197	0.00236
6956.73330	0.00236
6954.80462	0.00234
6952.87594	0.00234
6950.94727	0.00235
6949.01859	0.00236
6947.08992	0.00239
6945.16124	0.00240
6943.23257	0.00240
6941.30389	0.00237
6939.37521	0.00236
6937.44654	0.00237
6935.51786	0.00238
6933.58919	0.00238
6931.66051	0.00238
6929.73184	0.00238
6927.80316	0.00240
6925.87448	0.00241
6923.94581	0.00241
6922.01713	0.00240
6920.08846	0.00240
6918.15978	0.00241
6916.23111	0.00243
6914.30243	0.00243
6912.37375	0.00243
6910.44508	0.00245
6908.51640	0.00246
6906.58773	0.00246
6904.65905	0.00247
6902.73038	0.00248
6900.80170	0.00247
6898.87302	0.00248
6896.94435	0.00248
6895.01567	0.00249
6893.08700	0.00250
6891.15832	0.00250
6889.22965	0.00251
6887.30097	0.00251
6885.37229	0.00251
6883.44362	0.00252
6881.51494	0.00253
6879.58627	0.00255
6877.65759	0.00256
6875.72892	0.00255
6873.80024	0.00254
6871.87156	0.00254
6869.94289	0.00254
6868.01421	0.00255
6866.08554	0.00256
6864.15686	0.00255
6862.22819	0.00255
6860.29951	0.00257
6858.37083	0.00260
6856.44216	0.00261
6854.51348	0.00260
6852.58481	0.00260
6850.65613	0.00260
6848.72746	0.00262
6846.79878	0.00263
6844.87010	0.00263
6842.94143	0.00263
6841.01275	0.00263
6839.08408	0.00265
6837.15540	0.00266
6835.22673	0.00267
6833.29805	0.00266
6831.36937	0.00265
6829.44070	0.00266
6827.51202	0.00267
6825.58335	0.00269
6823.65467	0.00270
6821.72600	0.00272
6819.79732	0.00273
6817.86864	0.00272
6815.93997	0.00272
6814.01129	0.00272
6812.08262	0.00272
6810.15394	0.00273
6808.22527	0.00274
6806.29659	0.00275
6804.36791	0.00275
6802.43924	0.00277
6800.51056	0.00278
6798.58189	0.00279
6796.65321	0.00279
6794.72454	0.00280
6792.79586	0.00280
6790.86718	0.00280
6788.93851	0.00280
6787.00983	0.00280
6785.08116	0.00279
6783.15248	0.00279
6781.22381	0.00281
6779.29513	0.00283
6777.36645	0.00284
6775.43778	0.00284
6773.50910	0.00284
6771.58043	0.00285
6769.65175	0.00285
6767.72308	0.00285
6765.79440	0.00287
6763.86572	0.00288
6761.93705	0.00289
6760.00837	0.00289
6758.07970	0.00289
6756.15102	0.00289
6754.22235	0.00291
6752.29367	0.00293
6750.36499	0.00293
6748.43632	0.00291
6746.50764	0.00290
6744.57897	0.00289
6742.65029	0.00291
6740.72162	0.00293
6738.79294	0.00294
6736.86426	0.00295
6734.93559	0.00296
6733.00691	0.00298
6731.07824	0.00298
6729.14956	0.00298
6727.22089	0.00298
6725.29221	0.00299
6723.36353	0.00299
6721.43486	0.00300
6719.50618	0.00301
6717.57751	0.00303
6715.64883	0.00304
6713.72016	0.00303
6711.79148	0.00303
6709.86280	0.00304
6707.93413	0.00304
6706.00545	0.00303
6704.07678	0.00303
6702.14810	0.00304
6700.21943	0.00306
6698.29075	0.00306
6696.36207	0.00307
6694.43340	0.00307
6692.50472	0.00307
6690.57605	0.00307
6688.64737	0.00307
6686.71870	0.00308
6684.79002	0.00309
6682.86134	0.00311
6680.93267	0.00312
6679.00399	0.00312
6677.07532	0.00313
6675.14664	0.00315
6673.21797	0.00316
6671.28929	0.00317
6669.36061	0.00318
6667.43194	0.00319
6665.50326	0.00321
6663.57459	0.00320
6661.64591	0.00319
6659.71724	0.00319
6657.78856	0.00321
6655.85988	0.00323
6653.93121	0.00326
6652.00253	0.00326
6650.07386	0.00325
6648.14518	0.00324
6646.21651	0.00324
6644.28783	0.00325
6642.35915	0.00326
6640.43048	0.00326
6638.50180	0.00325
6636.57313	0.00326
6634.64445	0.00328
6632.71578	0.00331
6630.78710	0.00333
6628.85842	0.00333
6626.92975	0.00334
6625.00107	0.00334
6623.07240	0.00334
6621.14372	0.00334
6619.21505	0.00334
6617.28637	0.00334
6615.35769	0.00335
6613.42902	0.00337
6611.50034	0.00338
6609.57167	0.00338
6607.64299	0.00339
6605.71432	0.00340
6603.78564	0.00340
6601.85696	0.00339
6599.92829	0.00339
6597.99961	0.00341
6596.07094	0.00343
6594.14226	0.00345
6592.21359	0.00345
6590.28491	0.00345
6588.35623	0.00345
6586.42756	0.00346
6584.49888	0.00349
6582.57021	0.00350
6580.64153	0.00350
6578.71286	0.00349
6576.78418	0.00350
6574.85550	0.00351
6572.92683	0.00352
6570.99815	0.00353
6569.06948	0.00354
6567.14080	0.00354
6565.21213	0.00354
6563.28345	0.00354
6561.35477	0.00354
6559.42610	0.00356
6557.49742	0.00357
6555.56875	0.00358
6553.64007	0.00359
6551.71140	0.00360
6549.78272	0.00361
6547.85404	0.00362
6545.92537	0.00363
6543.99669	0.00365
6542.06802	0.00366
6540.13934	0.00365
6538.21067	0.00365
6536.28199	0.00366
6534.35331	0.00367
6532.42464	0.00367
6530.49596	0.00368
6528.56729	0.00369
6526.63861	0.00370
6524.70994	0.00372
6522.78126	0.00372
6520.85258	0.00373
6518.92391	0.00373
6516.99523	0.00373
6515.06656	0.00374
6513.13788	0.00375
6511.20921	0.00376
6509.28053	0.00377
6507.35185	0.00377
6505.42318	0.00378
6503.49450	0.00380
6501.56583	0.00381
6499.63715	0.00381
6497.70848	0.00381
6495.77980	0.00382
6493.85112	0.00383
6491.92245	0.00385
6489.99377	0.00386
6488.06510	0.00386
6486.13642	0.00387
6484.20775	0.00387
6482.27907	0.00388
6480.35039	0.00389
6478.42172	0.00390
6476.49304	0.00392
6474.56437	0.00393
6472.63569	0.00393
6470.70702	0.00391
6468.77834	0.00392
6466.84966	0.00393
6464.92099	0.00395
6462.99231	0.00395
6461.06364	0.00397
6459.13496	0.00400
6457.20629	0.00401
6455.27761	0.00400
6453.34893	0.00399
6451.42026	0.00399
6449.49158	0.00401
6447.56291	0.00403
6445.63423	0.00405
6443.70556	0.00404
6441.77688	0.00404
6439.84820	0.00405
6437.91953	0.00407
6435.99085	0.00409
6434.06218	0.00410
6432.13350	0.00410
6430.20483	0.00410
6428.27615	0.00409
6426.34747	0.00410
6424.41880	0.00411
6422.49012	0.00413
6420.56145	0.00415
6418.63277	0.00416
6416.70410	0.00417
6414.77542	0.00418
6412.84674	0.00417
6410.91807	0.00417
6408.98939	0.00419
6407.06072	0.00421
6405.13204	0.00422
6403.20337	0.00423
6401.27469	0.00423
6399.34601	0.00423
6397.41734	0.00422
6395.48866	0.00422
6393.55999	0.00422
6391.63131	0.00424
6389.70264	0.00425
6387.77396	0.00426
6385.84528	0.00427
6383.91661	0.00428
6381.98793	0.00429
6380.05926	0.00432
6378.13058	0.00434
6376.20191	0.00435
6374.27323	0.00436
6372.34455	0.00436
6370.41588	0.00437
6368.48720	0.00438
6366.55853	0.00439
6364.62985	0.00440
6362.70118	0.00441
6360.77250	0.00440
6358.84382	0.00440
6356.91515	0.00442
6354.98647	0.00443
6353.05780	0.00444
6351.12912	0.00446
6349.20045	0.00448
6347.27177	0.00450
6345.34309	0.00450
6343.41442	0.00451
6341.48574	0.00451
6339.55707	0.00451
6337.62839	0.00452
6335.69972	0.00454
6333.77104	0.00455
6331.84236	0.00455
6329.91369	0.00456
6327.98501	0.00458
6326.05634	0.00460
6324.12766	0.00460
6322.19899	0.00458
6320.27031	0.00458
6318.34163	0.00460
6316.41296	0.00462
6314.48428	0.00463
6312.55561	0.00463
6310.62693	0.00464
6308.69826	0.00465
6306.76958	0.00468
6304.84090	0.00470
6302.91223	0.00470
6300.98355	0.00471
6299.05488	0.00472
6297.12620	0.00473
6295.19753	0.00472
6293.26885	0.00472
6291.34017	0.00472
6289.41150	0.00473
6287.48282	0.00474
6285.55415	0.00476
6283.62547	0.00478
6281.69680	0.00481
6279.76812	0.00482
6277.83944	0.00482
6275.91077	0.00482
6273.98209	0.00483
6272.05342	0.00485
6270.12474	0.00486
6268.19607	0.00486
6266.26739	0.00485
6264.33871	0.00485
6262.41004	0.00487
6260.48136	0.00489
6258.55269	0.00491
6256.62401	0.00493
6254.69534	0.00495
6252.76666	0.00496
6250.83798	0.00497
6248.90931	0.00499
6246.98063	0.00501
6245.05196	0.00502
6243.12328	0.00502
6241.19461	0.00502
6239.26593	0.00502
6237.33725	0.00503
6235.40858	0.00503
6233.47990	0.00504
6231.55123	0.00506
6229.62255	0.00506
6227.69388	0.00505
6225.76520	0.00505
6223.83652	0.00507
6221.90785	0.00509
6219.97917	0.00511
6218.05050	0.00512
6216.12182	0.00515
6214.19315	0.00517
6212.26447	0.00518
6210.33579	0.00519
6208.40712	0.00520
6206.47844	0.00520
6204.54977	0.00520
6202.62109	0.00522
6200.69242	0.00525
6198.76374	0.00527
6196.83506	0.00528
6194.90639	0.00529
6192.97771	0.00530
6191.04904	0.00530
6189.12036	0.00530
6187.19169	0.00531
6185.26301	0.00532
6183.33433	0.00534
6181.40566	0.00533
6179.47698	0.00533
6177.54831	0.00534
6175.61963	0.00535
6173.69096	0.00538
6171.76228	0.00540
6169.83360	0.00541
6167.90493	0.00542
6165.97625	0.00543
6164.04758	0.00544
6162.11890	0.00545
6160.19023	0.00546
6158.26155	0.00547
6156.33287	0.00547
6154.40420	0.00547
6152.47552	0.00549
6150.54685	0.00551
6148.61817	0.00553
6146.68950	0.00555
6144.76082	0.00556
6142.83214	0.00557
6140.90347	0.00559
6138.97479	0.00560
6137.04612	0.00560
6135.11744	0.00560
6133.18877	0.00562
6131.26009	0.00563
6129.33141	0.00565
6127.40274	0.00567
6125.47406	0.00568
6123.54539	0.00568
6121.61671	0.00568
6119.68804	0.00570
6117.75936	0.00572
6115.83068	0.00573
6113.90201	0.00573
6111.97333	0.00573
6110.04466	0.00575
6108.11598	0.00576
6106.18731	0.00576
6104.25863	0.00577
6102.32995	0.00578
6100.40128	0.00581
6098.47260	0.00583
6096.54393	0.00586
6094.61525	0.00589
6092.68658	0.00590
6090.75790	0.00590
6088.82922	0.00592
6086.90055	0.00593
6084.97187	0.00594
6083.04320	0.00594
6081.11452	0.00597
6079.18585	0.00599
6077.25717	0.00599
6075.32849	0.00600
6073.39982	0.00601
6071.47114	0.00601
6069.54247	0.00602
6067.61379	0.00604
6065.68512	0.00604
6063.75644	0.00605
6061.82776	0.00606
6059.89909	0.00607
6057.97041	0.00608
6056.04174	0.00610
6054.11306	0.00612
6052.18439	0.00614
6050.25571	0.00615
6048.32703	0.00615
6046.39836	0.00616
6044.46968	0.00617
6042.54101	0.00618
6040.61233	0.00619
6038.68366	0.00621
6036.75498	0.00623
6034.82630	0.00625
6032.89763	0.00626
6030.96895	0.00628
6029.04028	0.00630
6027.11160	0.00633
6025.18293	0.00634
6023.25425	0.00636
6021.32557	0.00636
6019.39690	0.00636
6017.46822	0.00637
6015.53955	0.00640
6013.61087	0.00641
6011.68220	0.00641
6009.75352	0.00641
6007.82484	0.00642
6005.89617	0.00644
6003.96749	0.00645
6002.03882	0.00648
6000.11014	0.00650
5998.18147	0.00652
5996.25279	0.00654
5994.32411	0.00655
5992.39544	0.00657
5990.46676	0.00658
5988.53809	0.00657
5986.60941	0.00657
5984.68074	0.00657
5982.75206	0.00657
5980.82338	0.00659
5978.89471	0.00662
5976.96603	0.00664
5975.03736	0.00665
5973.10868	0.00666
5971.18001	0.00667
5969.25133	0.00667
5967.32265	0.00668
5965.39398	0.00672
5963.46530	0.00676
5961.53663	0.00677
5959.60795	0.00677
5957.67928	0.00679
5955.75060	0.00680
5953.82192	0.00682
5951.89325	0.00683
5949.96457	0.00683
5948.03590	0.00683
5946.10722	0.00683
5944.17855	0.00686
5942.24987	0.00690
5940.32119	0.00691
5938.39252	0.00691
5936.46384	0.00692
5934.53517	0.00695
5932.60649	0.00697
5930.67782	0.00698
5928.74914	0.00699
5926.82046	0.00699
5924.89179	0.00699
5922.96311	0.00701
5921.03444	0.00705
5919.10576	0.00708
5917.17709	0.00709
5915.24841	0.00711
5913.31973	0.00713
5911.39106	0.00714
5909.46238	0.00714
5907.53371	0.00716
5905.60503	0.00719
5903.67636	0.00720
5901.74768	0.00720
5899.81900	0.00722
5897.89033	0.00725
5895.96165	0.00727
5894.03298	0.00729
5892.10430	0.00730
5890.17563	0.00732
5888.24695	0.00733
5886.31827	0.00735
5884.38960	0.00736
5882.46092	0.00737
5880.53225	0.00739
5878.60357	0.00740
5876.67490	0.00739
5874.74622	0.00738
5872.81755	0.00739
5870.88887	0.00741
5868.96019	0.00743
5867.03152	0.00744
5865.10284	0.00744
5863.17417	0.00745
5861.24549	0.00748
5859.31682	0.00752
5857.38814	0.00754
5855.45946	0.00755
5853.53079	0.00756
5851.60211	0.00759
5849.67344	0.00763
5847.74476	0.00767
5845.81609	0.00767
5843.88741	0.00766
5841.95873	0.00767
5840.03006	0.00770
5838.10138	0.00771
5836.17271	0.00772
5834.24403	0.00772
5832.31536	0.00773
5830.38668	0.00775
5828.45800	0.00777
5826.52933	0.00778
5824.60065	0.00779
5822.67198	0.00781
5820.74330	0.00783
5818.81463	0.00785
5816.88595	0.00787
5814.95727	0.00787
5813.02860	0.00788
5811.09992	0.00788
5809.17125	0.00789
5807.24257	0.00792
5805.31390	0.00795
5803.38522	0.00798
5801.45654	0.00802
5799.52787	0.00803
5797.59919	0.00803
5795.67052	0.00804
5793.74184	0.00807
5791.81317	0.00810
5789.88449	0.00810
5787.95581	0.00809
5786.02714	0.00811
5784.09846	0.00814
5782.16979	0.00816
5780.24111	0.00818
5778.31244	0.00819
5776.38376	0.00820
5774.45508	0.00822
5772.52641	0.00824
5770.59773	0.00827
5768.66906	0.00830
5766.74038	0.00831
5764.81171	0.00831
5762.88303	0.00831
5760.95435	0.00834
5759.02568	0.00837
5757.09700	0.00840
5755.16833	0.00842
5753.23965	0.00843
5751.31098	0.00843
5749.38230	0.00843
5747.45362	0.00844
5745.52495	0.00847
5743.59627	0.00851
5741.66760	0.00851
5739.73892	0.00849
5737.81025	0.00849
5735.88157	0.00853
5733.95289	0.00858
5732.02422	0.00860
5730.09554	0.00860
5728.16687	0.00860
5726.23819	0.00862
5724.30952	0.00864
5722.38084	0.00866
5720.45216	0.00869
5718.52349	0.00873
5716.59481	0.00875
5714.66614	0.00875
5712.73746	0.00875
5710.80879	0.00877
5708.88011	0.00880
5706.95143	0.00881
5705.02276	0.00881
5703.09408	0.00883
5701.16541	0.00887
5699.23673	0.00892
5697.30806	0.00893
5695.37938	0.00893
5693.45070	0.00893
5691.52203	0.00895
5689.59335	0.00897
5687.66468	0.00899
5685.73600	0.00901
5683.80733	0.00904
5681.87865	0.00906
5679.94997	0.00908
5678.02130	0.00910
5676.09262	0.00913
5674.16395	0.00915
5672.23527	0.00914
5670.30660	0.00913
5668.37792	0.00915
5666.44924	0.00918
5664.52057	0.00922
5662.59189	0.00924
5660.66322	0.00926
5658.73454	0.00929
5656.80587	0.00930
5654.87719	0.00930
5652.94851	0.00931
5651.01984	0.00933
5649.09116	0.00936
5647.16249	0.00938
5645.23381	0.00939
5643.30514	0.00939
5641.37646	0.00940
5639.44778	0.00943
5637.51911	0.00946
5635.59043	0.00949
5633.66176	0.00953
5631.73308	0.00954
5629.80441	0.00953
5627.87573	0.00953
5625.94705	0.00954
5624.01838	0.00957
5622.08970	0.00960
5620.16103	0.00963
5618.23235	0.00966
5616.30368	0.00967
5614.37500	0.00968
5612.44632	0.00969
5610.51765	0.00970
5608.58897	0.00973
5606.66030	0.00977
5604.73162	0.00981
5602.80295	0.00982
5600.87427	0.00983
5598.94559	0.00983
5597.01692	0.00985
5595.08824	0.00986
5593.15957	0.00988
5591.23089	0.00991
5589.30222	0.00994
5587.37354	0.00996
5585.44486	0.00999
5583.51619	0.01002
5581.58751	0.01003
5579.65884	0.01004
5577.73016	0.01007
5575.80149	0.01009
5573.87281	0.01011
5571.94413	0.01011
5570.01546	0.01012
5568.08678	0.01014
5566.15811	0.01018
5564.22943	0.01021
5562.30076	0.01022
5560.37208	0.01022
5558.44340	0.01023
5556.51473	0.01025
5554.58605	0.01028
5552.65738	0.01031
5550.72870	0.01034
5548.80003	0.01035
5546.87135	0.01035
5544.94267	0.01036
5543.01400	0.01039
5541.08532	0.01042
5539.15665	0.01043
5537.22797	0.01043
5535.29930	0.01044
5533.37062	0.01047
5531.44194	0.01051
5529.51327	0.01053
5527.58459	0.01056
5525.65592	0.01057
5523.72724	0.01058
5521.79857	0.01059
5519.86989	0.01063
5517.94121	0.01067
5516.01254	0.01069
5514.08386	0.01069
5512.15519	0.01070
5510.22651	0.01071
5508.29784	0.01074
5506.36916	0.01077
5504.44048	0.01079
5502.51181	0.01082
5500.58313	0.01084
5498.65446	0.01085
5496.72578	0.01086
5494.79711	0.01089
5492.86843	0.01092
5490.93975	0.01095
5489.01108	0.01096
5487.08240	0.01098
5485.15373	0.01102
5483.22505	0.01105
5481.29638	0.01107
5479.36770	0.01108
5477.43902	0.01109
5475.51035	0.01110
5473.58167	0.01111
5471.65300	0.01113
5469.72432	0.01115
5467.79565	0.01117
5465.86697	0.01119
5463.93829	0.01120
5462.00962	0.01121
5460.08094	0.01124
5458.15227	0.01128
5456.22359	0.01130
5454.29492	0.01133
5452.36624	0.01135
5450.43756	0.01137
5448.50889	0.01137
5446.58021	0.01139
5444.65154	0.01140
5442.72286	0.01142
5440.79419	0.01144
5438.86551	0.01148
5436.93683	0.01152
5435.00816	0.01154
5433.07948	0.01156
5431.15081	0.01157
5429.22213	0.01158
5427.29346	0.01162
5425.36478	0.01166
5423.43610	0.01168
5421.50743	0.01170
5419.57875	0.01172
5417.65008	0.01174
5415.72140	0.01175
5413.79273	0.01175
5411.86405	0.01176
5409.93537	0.01180
5408.00670	0.01183
5406.07802	0.01184
5404.14935	0.01184
5402.22067	0.01186
5400.29200	0.01191
5398.36332	0.01195
5396.43464	0.01196
5394.50597	0.01195
5392.57729	0.01195
5390.64862	0.01199
5388.71994	0.01203
5386.79127	0.01205
5384.86259	0.01208
5382.93391	0.01211
5381.00524	0.01215
5379.07656	0.01217
5377.14789	0.01219
5375.21921	0.01221
5373.29054	0.01224
5371.36186	0.01229
5369.43318	0.01233
5367.50451	0.01234
5365.57583	0.01234
5363.64716	0.01235
5361.71848	0.01236
5359.78981	0.01238
5357.86113	0.01241
5355.93245	0.01242
5354.00378	0.01243
5352.07510	0.01245
5350.14643	0.01250
5348.21775	0.01254
5346.28908	0.01256
5344.36040	0.01257
5342.43172	0.01258
5340.50305	0.01260
5338.57437	0.01262
5336.64570	0.01265
5334.71702	0.01268
5332.78835	0.01270
5330.85967	0.01273
5328.93099	0.01276
5327.00232	0.01278
5325.07364	0.01280
5323.14497	0.01282
5321.21629	0.01283
5319.28762	0.01284
5317.35894	0.01287
5315.43026	0.01291
5313.50159	0.01295
5311.57291	0.01297
5309.64424	0.01297
5307.71556	0.01299
5305.78689	0.01301
5303.85821	0.01303
5301.92953	0.01306
5300.00086	0.01309
5298.07218	0.01312
5296.14351	0.01314
5294.21483	0.01316
5292.28616	0.01319
5290.35748	0.01322
5288.42880	0.01325
5286.50013	0.01327
5284.57145	0.01327
5282.64278	0.01328
5280.71410	0.01330
5278.78543	0.01332
5276.85675	0.01335
5274.92807	0.01337
5272.99940	0.01340
5271.07072	0.01344
5269.14205	0.01347
5267.21337	0.01349
5265.28470	0.01349
5263.35602	0.01351
5261.42734	0.01355
5259.49867	0.01360
5257.56999	0.01361
5255.64132	0.01362
5253.71264	0.01364
5251.78397	0.01368
5249.85529	0.01370
5247.92661	0.01371
5245.99794	0.01373
5244.06926	0.01375
5242.14059	0.01379
5240.21191	0.01382
5238.28324	0.01386
5236.35456	0.01390
5234.42588	0.01389
5232.49721	0.01389
5230.56853	0.01391
5228.63986	0.01394
5226.71118	0.01398
5224.78251	0.01402
5222.85383	0.01406
5220.92515	0.01407
5218.99648	0.01408
5217.06780	0.01410
5215.13913	0.01413
5213.21045	0.01415
5211.28178	0.01416
5209.35310	0.01419
5207.42442	0.01422
5205.49575	0.01425
5203.56707	0.01428
5201.63840	0.01430
5199.70972	0.01431
5197.78105	0.01433
5195.85237	0.01436
5193.92369	0.01438
5191.99502	0.01440
5190.06634	0.01444
5188.13767	0.01448
5186.20899	0.01451
5184.28032	0.01452
5182.35164	0.01454
5180.42296	0.01457
5178.49429	0.01459
5176.56561	0.01461
5174.63694	0.01464
5172.70826	0.01466
5170.77959	0.01469
5168.85091	0.01473
5166.92223	0.01474
5164.99356	0.01475
5163.06488	0.01479
5161.13621	0.01483
5159.20753	0.01485
5157.27886	0.01486
5155.35018	0.01489
5153.42150	0.01493
5151.49283	0.01495
5149.56415	0.01496
5147.63548	0.01496
5145.70680	0.01497
5143.77813	0.01500
5141.84945	0.01503
5139.92077	0.01505
5137.99210	0.01509
5136.06342	0.01513
5134.13475	0.01516
5132.20607	0.01518
5130.27740	0.01521
5128.34872	0.01526
5126.42004	0.01529
5124.49137	0.01531
5122.56269	0.01532
5120.63402	0.01532
5118.70534	0.01535
5116.77667	0.01539
5114.84799	0.01542
5112.91931	0.01545
5110.99064	0.01547
5109.06196	0.01549
5107.13329	0.01551
5105.20461	0.01552
5103.27594	0.01553
5101.34726	0.01556
5099.41858	0.01561
5097.48991	0.01565
5095.56123	0.01567
5093.63256	0.01570
5091.70388	0.01572
5089.77521	0.01575
5087.84653	0.01579
5085.91785	0.01583
5083.98918	0.01585
5082.06050	0.01585
5080.13183	0.01586
5078.20315	0.01590
5076.27448	0.01595
5074.34580	0.01597
5072.41712	0.01598
5070.48845	0.01600
5068.55977	0.01604
5066.63110	0.01606
5064.70242	0.01608
5062.77375	0.01610
5060.84507	0.01613
5058.91639	0.01615
5056.98772	0.01618
5055.05904	0.01622
5053.13037	0.01625
5051.20169	0.01627
5049.27302	0.01631
5047.34434	0.01634
5045.41566	0.01635
5043.48699	0.01636
5041.55831	0.01638
5039.62964	0.01640
5037.70096	0.01642
5035.77229	0.01646
5033.84361	0.01650
5031.91493	0.01652
5029.98626	0.01654
5028.05758	0.01657
5026.12891	0.01661
5024.20023	0.01665
5022.27156	0.01667
5020.34288	0.01669
5018.41420	0.01671
5016.48553	0.01673
5014.55685	0.01677
5012.62818	0.01681
5010.69950	0.01683
5008.77083	0.01685
5006.84215	0.01688
5004.91347	0.01692
5002.98480	0.01695
5001.05612	0.01697
4999.12745	0.01698
4997.19877	0.01699
4995.27010	0.01702
4993.34142	0.01706
4991.41274	0.01710
4989.48407	0.01712
4987.55539	0.01714
4985.62672	0.01716
4983.69804	0.01719
4981.76937	0.01721
4979.84069	0.01723
4977.91201	0.01728
4975.98334	0.01734
4974.05466	0.01739
4972.12599	0.01742
4970.19731	0.01743
4968.26864	0.01744
4966.33996	0.01747
4964.41128	0.01750
4962.48261	0.01751
4960.55393	0.01751
4958.62526	0.01753
4956.69658	0.01757
4954.76791	0.01761
4952.83923	0.01765
4950.91055	0.01769
4948.98188	0.01772
4947.05320	0.01775
4945.12453	0.01779
4943.19585	0.01783
4941.26718	0.01785
4939.33850	0.01786
4937.40982	0.01788
4935.48115	0.01792
4933.55247	0.01796
4931.62380	0.01799
4929.69512	0.01800
4927.76645	0.01803
4925.83777	0.01807
4923.90909	0.01809
4921.98042	0.01810
4920.05174	0.01812
4918.12307	0.01815
4916.19439	0.01819
4914.26572	0.01822
4912.33704	0.01825
4910.40836	0.01829
4908.47969	0.01830
4906.55101	0.01831
4904.62234	0.01833
4902.69366	0.01838
4900.76499	0.01843
4898.83631	0.01845
4896.90763	0.01846
4894.97896	0.01849
4893.05028	0.01855
4891.12161	0.01860
4889.19293	0.01862
4887.26426	0.01863
4885.33558	0.01864
4883.40690	0.01865
4881.47823	0.01867
4879.54955	0.01872
4877.62088	0.01877
4875.69220	0.01880
4873.76353	0.01883
4871.83485	0.01885
4869.90617	0.01887
4867.97750	0.01890
4866.04882	0.01895
4864.12015	0.01899
4862.19147	0.01900
4860.26280	0.01902
4858.33412	0.01905
4856.40544	0.01908
4854.47677	0.01911
4852.54809	0.01914
4850.61942	0.01915
4848.69074	0.01918
4846.76207	0.01923
4844.83339	0.01928
4842.90471	0.01932
4840.97604	0.01933
4839.04736	0.01933
4837.11869	0.01934
4835.19001	0.01937
4833.26134	0.01941
4831.33266	0.01944
4829.40398	0.01948
4827.47531	0.01953
4825.54663	0.01958
4823.61796	0.01961
4821.68928	0.01964
4819.76061	0.01967
4817.83193	0.01972
4815.90325	0.01977
4813.97458	0.01980
4812.04590	0.01982
4810.11723	0.01985
4808.18855	0.01989
4806.25988	0.01993
4804.33120	0.01996
4802.40252	0.01998
4800.47385	0.02002
4798.54517	0.02006
4796.61650	0.02011
4794.68782	0.02013
4792.75915	0.02013
4790.83047	0.02014
4788.90179	0.02015
4786.97312	0.02019
4785.04444	0.02023
4783.11577	0.02027
4781.18709	0.02030
4779.25842	0.02032
4777.32974	0.02035
4775.40106	0.02041
4773.47239	0.02045
4771.54371	0.02047
4769.61504	0.02047
4767.68636	0.02050
4765.75769	0.02054
4763.82901	0.02058
4761.90033	0.02062
4759.97166	0.02064
4758.04298	0.02067
4756.11431	0.02069
4754.18563	0.02073
4752.25696	0.02078
4750.32828	0.02084
4748.39960	0.02089
4746.47093	0.02092
4744.54225	0.02095
4742.61358	0.02099
4740.68490	0.02102
4738.75623	0.02104
4736.82755	0.02105
4734.89887	0.02107
4732.97020	0.02112
4731.04152	0.02116
4729.11285	0.02119
4727.18417	0.02122
4725.25550	0.02126
4723.32682	0.02130
4721.39814	0.02133
4719.46947	0.02137
4717.54079	0.02140
4715.61212	0.02142
4713.68344	0.02145
4711.75477	0.02149
4709.82609	0.02154
4707.89741	0.02160
4705.96874	0.02164
4704.04006	0.02166
4702.11139	0.02168
4700.18271	0.02170
4698.25404	0.02173
4696.32536	0.02176
4694.39668	0.02180
4692.46801	0.02185
4690.53933	0.02190
4688.61066	0.02193
4686.68198	0.02195
4684.75331	0.02197
4682.82463	0.02200
4680.89595	0.02203
4678.96728	0.02207
4677.03860	0.02213
4675.10993	0.02218
4673.18125	0.02221
4671.25258	0.02223
4669.32390	0.02226
4667.39522	0.02229
4665.46655	0.02234
4663.53787	0.02239
4661.60920	0.02242
4659.68052	0.02246
4657.75185	0.02249
4655.82317	0.02252
4653.89449	0.02256
4651.96582	0.02261
4650.03714	0.02265
4648.10847	0.02269
4646.17979	0.02273
4644.25112	0.02276
4642.32244	0.02278
4640.39376	0.02279
4638.46509	0.02282
4636.53641	0.02286
4634.60774	0.02291
4632.67906	0.02296
4630.75039	0.02299
4628.82171	0.02303
4626.89303	0.02309
4624.96436	0.02316
4623.03568	0.02320
4621.10701	0.02322
4619.17833	0.02325
4617.24966	0.02329
4615.32098	0.02332
4613.39230	0.02334
4611.46363	0.02336
4609.53495	0.02340
4607.60628	0.02344
4605.67760	0.02348
4603.74893	0.02351
4601.82025	0.02355
4599.89157	0.02359
4597.96290	0.02364
4596.03422	0.02367
4594.10555	0.02369
4592.17687	0.02371
4590.24820	0.02376
4588.31952	0.02384
4586.39084	0.02391
4584.46217	0.02394
4582.53349	0.02397
4580.60482	0.02401
4578.67614	0.02404
4576.74747	0.02407
4574.81879	0.02409
4572.89011	0.02412
4570.96144	0.02417
4569.03276	0.02422
4567.10409	0.02426
4565.17541	0.02429
4563.24674	0.02431
4561.31806	0.02435
4559.38938	0.02440
4557.46071	0.02445
4555.53203	0.02451
4553.60336	0.02458
4551.67468	0.02462
4549.74601	0.02463
4547.81733	0.02464
4545.88865	0.02467
4543.95998	0.02473
4542.03130	0.02478
4540.10263	0.02482
4538.17395	0.02485
4536.24528	0.02490
4534.31660	0.02496
4532.38792	0.02501
4530.45925	0.02504
4528.53057	0.02506
4526.60190	0.02509
4524.67322	0.02514
4522.74455	0.02519
4520.81587	0.02524
4518.88719	0.02529
4516.95852	0.02534
4515.02984	0.02536
4513.10117	0.02539
4511.17249	0.02543
4509.24382	0.02548
4507.31514	0.02553
4505.38646	0.02560
4503.45779	0.02567
4501.52911	0.02571
4499.60044	0.02573
4497.67176	0.02576
4495.74309	0.02580
4493.81441	0.02583
4491.88573	0.02587
4489.95706	0.02591
4488.02838	0.02595
4486.09971	0.02600
4484.17103	0.02605
4482.24236	0.02610
4480.31368	0.02615
4478.38500	0.02620
4476.45633	0.02623
4474.52765	0.02626
4472.59898	0.02629
4470.67030	0.02633
4468.74163	0.02638
4466.81295	0.02643
4464.88427	0.02646
4462.95560	0.02649
4461.02692	0.02653
4459.09825	0.02659
4457.16957	0.02664
4455.24090	0.02668
4453.31222	0.02672
4451.38354	0.02677
4449.45487	0.02685
4447.52619	0.02693
4445.59752	0.02698
4443.66884	0.02702
4441.74017	0.02705
4439.81149	0.02710
4437.88281	0.02716
4435.95414	0.02722
4434.02546	0.02727
4432.09679	0.02729
4430.16811	0.02731
4428.23944	0.02735
4426.31076	0.02740
4424.38208	0.02744
4422.45341	0.02749
4420.52473	0.02756
4418.59606	0.02762
4416.66738	0.02765
4414.73871	0.02769
4412.81003	0.02775
4410.88135	0.02781
4408.95268	0.02786
4407.02400	0.02791
4405.09533	0.02796
4403.16665	0.02800
4401.23798	0.02806
4399.30930	0.02813
4397.38062	0.02818
4395.45195	0.02825
4393.52327	0.02830
4391.59460	0.02832
4389.66592	0.02833
4387.73725	0.02836
4385.80857	0.02843
4383.87989	0.02849
4381.95122	0.02854
4380.02254	0.02860
4378.09387	0.02866
4376.16519	0.02870
4374.23652	0.02874
4372.30784	0.02880
4370.37916	0.02886
4368.45049	0.02890
4366.52181	0.02894
4364.59314	0.02899
4362.66446	0.02905
4360.73579	0.02913
4358.80711	0.02919
4356.87843	0.02923
4354.94976	0.02925
4353.02108	0.02929
4351.09241	0.02936
4349.16373	0.02943
4347.23506	0.02948
4345.30638	0.02951
4343.37770	0.02955
4341.44903	0.02960
4339.52035	0.02965
4337.59168	0.02970
4335.66300	0.02974
4333.73433	0.02979
4331.80565	0.02984
4329.87697	0.02992
4327.94830	0.03000
4326.01962	0.03005
4324.09095	0.03009
4322.16227	0.03013
4320.23360	0.03019
4318.30492	0.03024
4316.37624	0.03031
4314.44757	0.03038
4312.51889	0.03044
4310.59022	0.03048
4308.66154	0.03053
4306.73287	0.03061
4304.80419	0.03068
4302.87551	0.03073
4300.94684	0.03076
4299.01816	0.03082
4297.08949	0.03089
4295.16081	0.03096
4293.23214	0.03103
4291.30346	0.03107
4289.37478	0.03112
4287.44611	0.03119
4285.51743	0.03126
4283.58876	0.03133
4281.66008	0.03138
4279.73141	0.03142
4277.80273	0.03148
4275.87405	0.03154
4273.94538	0.03159
4272.01670	0.03163
4270.08803	0.03167
4268.15935	0.03172
4266.23068	0.03178
4264.30200	0.03183
4262.37332	0.03189
4260.44465	0.03196
4258.51597	0.03202
4256.58730	0.03206
4254.65862	0.03210
4252.72995	0.03216
4250.80127	0.03223
4248.87259	0.03229
4246.94392	0.03234
4245.01524	0.03240
4243.08657	0.03247
4241.15789	0.03256
4239.22922	0.03263
4237.30054	0.03267
4235.37186	0.03270
4233.44319	0.03275
4231.51451	0.03281
4229.58584	0.03288
4227.65716	0.03295
4225.72849	0.03301
4223.79981	0.03306
4221.87113	0.03312
4219.94246	0.03318
4218.01378	0.03325
4216.08511	0.03332
4214.15643	0.03340
4212.22776	0.03347
4210.29908	0.03353
4208.37040	0.03359
4206.44173	0.03364
4204.51305	0.03370
4202.58438	0.03377
4200.65570	0.03383
4198.72703	0.03390
4196.79835	0.03397
4194.86968	0.03404
4192.94100	0.03409
4191.01232	0.03414
4189.08365	0.03419
4187.15497	0.03426
4185.22630	0.03435
4183.29762	0.03443
4181.36895	0.03449
4179.44027	0.03453
4177.51159	0.03458
4175.58292	0.03465
4173.65424	0.03472
4171.72557	0.03479
4169.79689	0.03486
4167.86822	0.03491
4165.93954	0.03495
4164.01086	0.03500
4162.08219	0.03507
4160.15351	0.03515
4158.22484	0.03524
4156.29616	0.03534
4154.36749	0.03542
4152.43881	0.03548
4150.51013	0.03552
4148.58146	0.03558
4146.65278	0.03565
4144.72411	0.03572
4142.79543	0.03579
4140.86676	0.03584
4138.93808	0.03590
4137.00940	0.03597
4135.08073	0.03604
4133.15205	0.03611
4131.22338	0.03618
4129.29470	0.03626
4127.36603	0.03634
4125.43735	0.03641
4123.50867	0.03647
4121.58000	0.03653
4119.65132	0.03658
4117.72265	0.03663
4115.79397	0.03669
4113.86530	0.03677
4111.93662	0.03685
4110.00794	0.03693
4108.07927	0.03701
4106.15059	0.03709
4104.22192	0.03715
4102.29324	0.03719
4100.36457	0.03724
4098.43589	0.03731
4096.50721	0.03739
4094.57854	0.03748
4092.64986	0.03756
4090.72119	0.03763
4088.79251	0.03770
4086.86384	0.03778
4084.93516	0.03786
4083.00648	0.03795
4081.07781	0.03801
4079.14913	0.03806
4077.22046	0.03813
4075.29178	0.03820
4073.36311	0.03825
4071.43443	0.03830
4069.50575	0.03839
4067.57708	0.03850
4065.64840	0.03859
4063.71973	0.03865
4061.79105	0.03870
4059.86238	0.03876
4057.93370	0.03885
4056.00502	0.03894
4054.07635	0.03904
4052.14767	0.03912
4050.21900	0.03917
4048.29032	0.03923
4046.36165	0.03931
4044.43297	0.03940
4042.50429	0.03949
4040.57562	0.03957
4038.64694	0.03962
4036.71827	0.03966
4034.78959	0.03972
4032.86092	0.03981
4030.93224	0.03990
4029.00356	0.03997
4027.07489	0.04003
4025.14621	0.04011
4023.21754	0.04021
4021.28886	0.04030
4019.36019	0.04037
4017.43151	0.04044
4015.50283	0.04052
4013.57416	0.04061
4011.64548	0.04068
4009.71681	0.04072
4007.78813	0.04075
4005.85946	0.04083
4003.93078	0.04094
4002.00210	0.04105
4000.07343	0.04114
3998.14475	0.04121
3996.21608	0.04129
3994.28740	0.04137
3992.35873	0.04145
3990.43005	0.04153
3988.50137	0.04159
3986.57270	0.04166
3984.64402	0.04175
3982.71535	0.04183
3980.78667	0.04192
3978.85800	0.04200
3976.92932	0.04206
3975.00064	0.04212
3973.07197	0.04219
3971.14329	0.04227
3969.21462	0.04235
3967.28594	0.04243
3965.35727	0.04252
3963.42859	0.04261
3961.49991	0.04269
3959.57124	0.04277
3957.64256	0.04286
3955.71389	0.04294
3953.78521	0.04301
3951.85654	0.04307
3949.92786	0.04314
3947.99918	0.04323
3946.07051	0.04329
3944.14183	0.04333
3942.21316	0.04340
3940.28448	0.04350
3938.35581	0.04361
3936.42713	0.04370
3934.49845	0.04376
3932.56978	0.04383
3930.64110	0.04393
3928.71243	0.04403
3926.78375	0.04411
3924.85508	0.04418
3922.92640	0.04427
3920.99772	0.04434
3919.06905	0.04439
3917.14037	0.04448
3915.21170	0.04461
3913.28302	0.04472
3911.35435	0.04480
3909.42567	0.04488
3907.49699	0.04492
3905.56832	0.04489
3903.63964	0.04485
3901.71097	0.04488
3899.78229	0.04500
3897.85362	0.04521
3895.92494	0.04542
3893.99626	0.04552
3892.06759	0.04555
3890.13891	0.04563
3888.21024	0.04571
3886.28156	0.04574
3884.35289	0.04580
3882.42421	0.04588
3880.49553	0.04597
3878.56686	0.04612
3876.63818	0.04623
3874.70951	0.04627
3872.78083	0.04630
3870.85216	0.04635
3868.92348	0.04645
3866.99480	0.04658
3865.06613	0.04670
3863.13745	0.04682
3861.20878	0.04694
3859.28010	0.04703
3857.35143	0.04698
3855.42275	0.04681
3853.49407	0.04681
3851.56540	0.04712
3849.63672	0.04748
3847.70805	0.04768
3845.77937	0.04774
3843.85070	0.04776
3841.92202	0.04777
3839.99334	0.04778
3838.06467	0.04781
3836.13599	0.04791
3834.20732	0.04804
3832.27864	0.04817
3830.34997	0.04832
3828.42129	0.04847
3826.49261	0.04861
3824.56394	0.04867
3822.63526	0.04865
3820.70659	0.04868
3818.77791	0.04879
3816.84924	0.04890
3814.92056	0.04905
3812.99188	0.04924
3811.06321	0.04934
3809.13453	0.04935
3807.20586	0.04938
3805.27718	0.04945
3803.34851	0.04949
3801.41983	0.04955
3799.49115	0.04972
3797.56248	0.04989
3795.63380	0.05003
3793.70513	0.05018
3791.77645	0.05031
3789.84778	0.05042
3787.91910	0.05053
3785.99042	0.05060
3784.06175	0.05067
3782.13307	0.05074
3780.20440	0.05080
3778.27572	0.05090
3776.34705	0.05103
3774.41837	0.05113
3772.48969	0.05115
3770.56102	0.05116
3768.63234	0.05123
3766.70367	0.05137
3764.77499	0.05153
3762.84632	0.05167
3760.91764	0.05172
3758.98896	0.05175
3757.06029	0.05183
3755.13161	0.05185
3753.20294	0.05178
3751.27426	0.05174
3749.34559	0.05183
3747.41691	0.05190
3745.48823	0.05190
3743.55956	0.05206
3741.63088	0.05241
3739.70221	0.05260
3737.77353	0.05254
3735.84486	0.05250
3733.91618	0.05264
3731.98750	0.05287
3730.05883	0.05309
3728.13015	0.05322
3726.20148	0.05330
3724.27280	0.05341
3722.34413	0.05356
3720.41545	0.05370
3718.48677	0.05381
3716.55810	0.05388
3714.62942	0.05387
3712.70075	0.05383
3710.77207	0.05390
3708.84340	0.05410
3706.91472	0.05433
3704.98604	0.05447
3703.05737	0.05453
3701.12869	0.05463
3699.20002	0.05479
3697.27134	0.05492
3695.34267	0.05498
3693.41399	0.05494
3691.48531	0.05487
3689.55664	0.05492
3687.62796	0.05514
3685.69929	0.05541
3683.77061	0.05561
3681.84194	0.05569
3679.91326	0.05566
3677.98458	0.05554
3676.05591	0.05547
3674.12723	0.05559
3672.19856	0.05573
3670.26988	0.05582
3668.34121	0.05602
3666.41253	0.05627
3664.48385	0.05646
3662.55518	0.05659
3660.62650	0.05668
3658.69783	0.05668
3656.76915	0.05667
3654.84048	0.05671
3652.91180	0.05668
3650.98312	0.05654
3649.05445	0.05649
3647.12577	0.05665
3645.19710	0.05694
3643.26842	0.05720
3641.33975	0.05737
3639.41107	0.05751
3637.48239	0.05762
3635.55372	0.05771
3633.62504	0.05774
3631.69637	0.05766
3629.76769	0.05756
3627.83902	0.05771
3625.91034	0.05801
3623.98166	0.05817
3622.05299	0.05815
3620.12431	0.05811
3618.19564	0.05816
3616.26696	0.05826
3614.33829	0.05831
3612.40961	0.05834
3610.48093	0.05840
3608.55226	0.05849
3606.62358	0.05863
3604.69491	0.05880
3602.76623	0.05893
3600.83756	0.05900
3598.90888	0.05905
3596.98020	0.05909
3595.05153	0.05915
3593.12285	0.05924
3591.19418	0.05929
3589.26550	0.05927
3587.33683	0.05931
3585.40815	0.05950
3583.47947	0.05971
3581.55080	0.05983
3579.62212	0.05992
3577.69345	0.06001
3575.76477	0.06009
3573.83610	0.06015
3571.90742	0.06018
3569.97874	0.06013
3568.05007	0.06006
3566.12139	0.06014
3564.19272	0.06037
3562.26404	0.06058
3560.33537	0.06071
3558.40669	0.06079
3556.47801	0.06084
3554.54934	0.06087
3552.62066	0.06094
3550.69199	0.06104
3548.76331	0.06111
3546.83464	0.06113
3544.90596	0.06119
3542.97728	0.06129
3541.04861	0.06141
3539.11993	0.06150
3537.19126	0.06155
3535.26258	0.06158
3533.33391	0.06164
3531.40523	0.06169
3529.47655	0.06171
3527.54788	0.06173
3525.61920	0.06175
3523.69053	0.06179
3521.76185	0.06184
3519.83318	0.06189
3517.90450	0.06195
3515.97582	0.06200
3514.04715	0.06203
3512.11847	0.06206
3510.18980	0.06211
3508.26112	0.06219
3506.33245	0.06225
3504.40377	0.06227
3502.47509	0.06228
3500.54642	0.06230
3498.61774	0.06232
3496.68907	0.06235
3494.76039	0.06241
3492.83172	0.06248
3490.90304	0.06251
3488.97436	0.06253
3487.04569	0.06258
3485.11701	0.06264
3483.18834	0.06266
3481.25966	0.06267
3479.33099	0.06272
3477.40231	0.06280
3475.47363	0.06287
3473.54496	0.06292
3471.61628	0.06300
3469.68761	0.06310
3467.75893	0.06321
3465.83026	0.06332
3463.90158	0.06343
3461.97290	0.06354
3460.04423	0.06365
3458.11555	0.06375
3456.18688	0.06386
3454.25820	0.06396
3452.32953	0.06405
3450.40085	0.06413
3448.47217	0.06421
3446.54350	0.06430
3444.61482	0.06440
3442.68615	0.06451
3440.75747	0.06466
3438.82880	0.06485
3436.90012	0.06503
3434.97144	0.06520
3433.04277	0.06538
3431.11409	0.06558
3429.18542	0.06577
3427.25674	0.06594
3425.32807	0.06614
3423.39939	0.06633
3421.47071	0.06652
3419.54204	0.06670
3417.61336	0.06689
3415.68469	0.06705
3413.75601	0.06721
3411.82734	0.06736
3409.89866	0.06752
3407.96998	0.06768
3406.04131	0.06784
3404.11263	0.06798
3402.18396	0.06812
3400.25528	0.06824
3398.32661	0.06836
3396.39793	0.06848
3394.46925	0.06861
3392.54058	0.06874
3390.61190	0.06889
3388.68323	0.06903
3386.75455	0.06917
3384.82588	0.06930
3382.89720	0.06942
3380.96852	0.06956
3379.03985	0.06971
3377.11117	0.06985
3375.18250	0.06998
3373.25382	0.07010
3371.32515	0.07022
3369.39647	0.07034
3367.46779	0.07046
3365.53912	0.07059
3363.61044	0.07070
3361.68177	0.07081
3359.75309	0.07094
3357.82442	0.07109
3355.89574	0.07125
3353.96706	0.07140
3352.03839	0.07151
3350.10971	0.07160
3348.18104	0.07171
3346.25236	0.07183
3344.32369	0.07197
3342.39501	0.07212
3340.46633	0.07226
3338.53766	0.07237
3336.60898	0.07247
3334.68031	0.07258
3332.75163	0.07271
3330.82296	0.07282
3328.89428	0.07293
3326.96560	0.07305
3325.03693	0.07319
3323.10825	0.07335
3321.17958	0.07349
3319.25090	0.07362
3317.32223	0.07374
3315.39355	0.07387
3313.46487	0.07402
3311.53620	0.07416
3309.60752	0.07428
3307.67885	0.07441
3305.75017	0.07457
3303.82150	0.07476
3301.89282	0.07492
3299.96414	0.07503
3298.03547	0.07514
3296.10679	0.07527
3294.17812	0.07541
3292.24944	0.07554
3290.32077	0.07565
3288.39209	0.07577
3286.46341	0.07591
3284.53474	0.07607
3282.60606	0.07623
3280.67739	0.07637
3278.74871	0.07651
3276.82004	0.07664
3274.89136	0.07676
3272.96268	0.07691
3271.03401	0.07708
3269.10533	0.07725
3267.17666	0.07739
3265.24798	0.07751
3263.31931	0.07762
3261.39063	0.07775
3259.46195	0.07787
3257.53328	0.07800
3255.60460	0.07815
3253.67593	0.07830
3251.74725	0.07845
3249.81858	0.07860
3247.88990	0.07871
3245.96122	0.07883
3244.03255	0.07899
3242.10387	0.07916
3240.17520	0.07933
3238.24652	0.07947
3236.31785	0.07959
3234.38917	0.07972
3232.46049	0.07985
3230.53182	0.07998
3228.60314	0.08010
3226.67447	0.08022
3224.74579	0.08035
3222.81712	0.08050
3220.88844	0.08065
3218.95976	0.08080
3217.03109	0.08095
3215.10241	0.08109
3213.17374	0.08122
3211.24506	0.08133
3209.31639	0.08147
3207.38771	0.08164
3205.45903	0.08178
3203.53036	0.08189
3201.60168	0.08202
3199.67301	0.08222
3197.74433	0.08240
3195.81566	0.08255
3193.88698	0.08270
3191.95830	0.08286
3190.02963	0.08302
3188.10095	0.08318
3186.17228	0.08334
3184.24360	0.08347
3182.31493	0.08360
3180.38625	0.08374
3178.45757	0.08385
3176.52890	0.08397
3174.60022	0.08410
3172.67155	0.08423
3170.74287	0.08436
3168.81420	0.08451
3166.88552	0.08468
3164.95684	0.08485
3163.02817	0.08501
3161.09949	0.08515
3159.17082	0.08530
3157.24214	0.08545
3155.31347	0.08559
3153.38479	0.08571
3151.45611	0.08585
3149.52744	0.08600
3147.59876	0.08614
3145.67009	0.08629
3143.74141	0.08646
3141.81274	0.08662
3139.88406	0.08677
3137.95538	0.08692
3136.02671	0.08707
3134.09803	0.08720
3132.16936	0.08736
3130.24068	0.08751
3128.31201	0.08764
3126.38333	0.08777
3124.45465	0.08791
3122.52598	0.08804
3120.59730	0.08816
3118.66863	0.08830
3116.73995	0.08845
3114.81128	0.08860
3112.88260	0.08876
3110.95392	0.08894
3109.02525	0.08912
3107.09657	0.08927
3105.16790	0.08939
3103.23922	0.08949
3101.31055	0.08959
3099.38187	0.08972
3097.45319	0.08989
3095.52452	0.09007
3093.59584	0.09024
3091.66717	0.09039
3089.73849	0.09053
3087.80982	0.09068
3085.88114	0.09081
3083.95246	0.09092
3082.02379	0.09104
3080.09511	0.09120
3078.16644	0.09137
3076.23776	0.09152
3074.30909	0.09165
3072.38041	0.09178
3070.45173	0.09190
3068.52306	0.09203
3066.59438	0.09218
3064.66571	0.09234
3062.73703	0.09249
3060.80836	0.09264
3058.87968	0.09282
3056.95100	0.09301
3055.02233	0.09314
3053.09365	0.09324
3051.16498	0.09337
3049.23630	0.09354
3047.30763	0.09368
3045.37895	0.09381
3043.45027	0.09395
3041.52160	0.09410
3039.59292	0.09424
3037.66425	0.09439
3035.73557	0.09454
3033.80690	0.09465
3031.87822	0.09474
3029.94954	0.09488
3028.02087	0.09503
3026.09219	0.09516
3024.16352	0.09531
3022.23484	0.09550
3020.30617	0.09567
3018.37749	0.09582
3016.44881	0.09596
3014.52014	0.09609
3012.59146	0.09621
3010.66279	0.09635
3008.73411	0.09650
3006.80544	0.09666
3004.87676	0.09679
3002.94808	0.09691
3001.01941	0.09702
2999.09073	0.09714
2997.16206	0.09728
2995.23338	0.09742
2993.30471	0.09758
2991.37603	0.09775
2989.44735	0.09790
2987.51868	0.09800
2985.59000	0.09808
2983.66133	0.09817
2981.73265	0.09825
2979.80398	0.09832
2977.87530	0.09837
2975.94662	0.09841
2974.01795	0.09845
2972.08927	0.09847
2970.16060	0.09845
2968.23192	0.09840
2966.30325	0.09839
2964.37457	0.09845
2962.44589	0.09856
2960.51722	0.09870
2958.58854	0.09886
2956.65987	0.09904
2954.73119	0.09921
2952.80252	0.09938
2950.87384	0.09957
2948.94516	0.09975
2947.01649	0.09989
2945.08781	0.09998
2943.15914	0.10003
2941.23046	0.10004
2939.30179	0.10003
2937.37311	0.10005
2935.44443	0.10007
2933.51576	0.10007
2931.58708	0.10003
2929.65841	0.09998
2927.72973	0.09996
2925.80106	0.09996
2923.87238	0.09996
2921.94370	0.09997
2920.01503	0.10005
2918.08635	0.10024
2916.15768	0.10057
2914.22900	0.10102
2912.30033	0.10152
2910.37165	0.10195
2908.44297	0.10231
2906.51430	0.10260
2904.58562	0.10285
2902.65695	0.10308
2900.72827	0.10331
2898.79960	0.10353
2896.87092	0.10374
2894.94224	0.10393
2893.01357	0.10411
2891.08489	0.10430
2889.15622	0.10450
2887.22754	0.10469
2885.29887	0.10488
2883.37019	0.10506
2881.44151	0.10520
2879.51284	0.10533
2877.58416	0.10548
2875.65549	0.10563
2873.72681	0.10575
2871.79814	0.10588
2869.86946	0.10606
2867.94078	0.10620
2866.01211	0.10628
2864.08343	0.10632
2862.15476	0.10638
2860.22608	0.10644
2858.29741	0.10646
2856.36873	0.10644
2854.44005	0.10644
2852.51138	0.10647
2850.58270	0.10659
2848.65403	0.10686
2846.72535	0.10732
2844.79668	0.10784
2842.86800	0.10828
2840.93932	0.10859
2839.01065	0.10884
2837.08197	0.10907
2835.15330	0.10932
2833.22462	0.10953
2831.29595	0.10970
2829.36727	0.10986
2827.43859	0.11002
2825.50992	0.11020
2823.58124	0.11038
2821.65257	0.11055
2819.72389	0.11071
2817.79522	0.11085
2815.86654	0.11099
2813.93786	0.11116
2812.00919	0.11137
2810.08051	0.11156
2808.15184	0.11173
2806.22316	0.11189
2804.29449	0.11204
2802.36581	0.11219
2800.43713	0.11235
2798.50846	0.11251
2796.57978	0.11266
2794.65111	0.11280
2792.72243	0.11295
2790.79376	0.11310
2788.86508	0.11324
2786.93640	0.11337
2785.00773	0.11351
2783.07905	0.11367
2781.15038	0.11385
2779.22170	0.11404
2777.29303	0.11421
2775.36435	0.11436
2773.43567	0.11451
2771.50700	0.11467
2769.57832	0.11483
2767.64965	0.11498
2765.72097	0.11513
2763.79230	0.11530
2761.86362	0.11548
2759.93494	0.11564
2758.00627	0.11578
2756.07759	0.11590
2754.14892	0.11604
2752.22024	0.11621
2750.29157	0.11638
2748.36289	0.11653
2746.43421	0.11668
2744.50554	0.11685
2742.57686	0.11704
2740.64819	0.11721
2738.71951	0.11736
2736.79084	0.11749
2734.86216	0.11762
2732.93348	0.11777
2731.00481	0.11789
2729.07613	0.11802
2727.14746	0.11820
2725.21878	0.11838
2723.29011	0.11853
2721.36143	0.11866
2719.43275	0.11880
2717.50408	0.11894
2715.57540	0.11909
2713.64673	0.11925
2711.71805	0.11941
2709.78938	0.11955
2707.86070	0.11967
2705.93202	0.11980
2704.00335	0.11994
2702.07467	0.12009
2700.14600	0.12027
2698.21732	0.12046
2696.28865	0.12063
2694.35997	0.12073
2692.43129	0.12081
2690.50262	0.12094
2688.57394	0.12111
2686.64527	0.12129
2684.71659	0.12146
2682.78792	0.12162
2680.85924	0.12177
2678.93056	0.12193
2677.00189	0.12208
2675.07321	0.12222
2673.14454	0.12236
2671.21586	0.12248
2669.28719	0.12261
2667.35851	0.12278
2665.42983	0.12295
2663.50116	0.12309
2661.57248	0.12324
2659.64381	0.12340
2657.71513	0.12356
2655.78646	0.12372
2653.85778	0.12386
2651.92910	0.12398
2650.00043	0.12414
2648.07175	0.12434
2646.14308	0.12455
2644.21440	0.12472
2642.28573	0.12486
2640.35705	0.12499
2638.42837	0.12511
2636.49970	0.12526
2634.57102	0.12542
2632.64235	0.12560
2630.71367	0.12577
2628.78500	0.12593
2626.85632	0.12610
2624.92764	0.12627
2622.99897	0.12644
2621.07029	0.12662
2619.14162	0.12677
2617.21294	0.12692
2615.28427	0.12707
2613.35559	0.12725
2611.42691	0.12743
2609.49824	0.12760
2607.56956	0.12778
2605.64089	0.12797
2603.71221	0.12811
2601.78354	0.12821
2599.85486	0.12833
2597.92618	0.12850
2595.99751	0.12868
2594.06883	0.12887
2592.14016	0.12904
2590.21148	0.12918
2588.28281	0.12933
2586.35413	0.12952
2584.42545	0.12970
2582.49678	0.12985
2580.56810	0.12998
2578.63943	0.13010
2576.71075	0.13025
2574.78208	0.13042
2572.85340	0.13061
2570.92472	0.13081
2568.99605	0.13099
2567.06737	0.13113
2565.13870	0.13125
2563.21002	0.13135
2561.28135	0.13146
2559.35267	0.13163
2557.42399	0.13181
2555.49532	0.13200
2553.56664	0.13217
2551.63797	0.13231
2549.70929	0.13244
2547.78062	0.13259
2545.85194	0.13277
2543.92326	0.13296
2541.99459	0.13310
2540.06591	0.13321
2538.13724	0.13334
2536.20856	0.13347
2534.27989	0.13362
2532.35121	0.13380
2530.42253	0.13397
2528.49386	0.13412
2526.56518	0.13429
2524.63651	0.13446
2522.70783	0.13459
2520.77916	0.13475
2518.85048	0.13496
2516.92181	0.13515
2514.99313	0.13531
2513.06445	0.13545
2511.13578	0.13561
2509.20710	0.13580
2507.27843	0.13599
2505.34975	0.13616
2503.42108	0.13633
2501.49240	0.13654
2499.56372	0.13672
2497.63505	0.13687
2495.70637	0.13701
2493.77770	0.13716
2491.84902	0.13732
2489.92035	0.13747
2487.99167	0.13764
2486.06299	0.13782
2484.13432	0.13801
2482.20564	0.13819
2480.27697	0.13836
2478.34829	0.13852
2476.41962	0.13869
2474.49094	0.13888
2472.56226	0.13907
2470.63359	0.13926
2468.70491	0.13943
2466.77624	0.13958
2464.84756	0.13973
2462.91889	0.13990
2460.99021	0.14005
2459.06153	0.14020
2457.13286	0.14037
2455.20418	0.14056
2453.27551	0.14074
2451.34683	0.14091
2449.41816	0.14107
2447.48948	0.14121
2445.56080	0.14133
2443.63213	0.14145
2441.70345	0.14161
2439.77478	0.14179
2437.84610	0.14195
2435.91743	0.14211
2433.98875	0.14230
2432.06007	0.14250
2430.13140	0.14271
2428.20272	0.14291
2426.27405	0.14309
2424.34537	0.14322
2422.41670	0.14336
2420.48802	0.14350
2418.55934	0.14366
2416.63067	0.14385
2414.70199	0.14407
2412.77332	0.14426
2410.84464	0.14440
2408.91597	0.14452
2406.98729	0.14466
2405.05861	0.14481
2403.12994	0.14500
2401.20126	0.14520
2399.27259	0.14539
2397.34391	0.14555
2395.41524	0.14571
2393.48656	0.14586
2391.55788	0.14599
2389.62921	0.14611
2387.70053	0.14623
2385.77186	0.14636
2383.84318	0.14651
2381.91451	0.14666
2379.98583	0.14680
2378.05715	0.14687
2376.12848	0.14690
2374.19980	0.14693
2372.27113	0.14694
2370.34245	0.14694
2368.41378	0.14696
2366.48510	0.14703
2364.55642	0.14718
2362.62775	0.14736
2360.69907	0.14752
2358.77040	0.14771
2356.84172	0.14797
2354.91305	0.14827
2352.98437	0.14857
2351.05569	0.14889
2349.12702	0.14913
2347.19834	0.14922
2345.26967	0.14926
2343.34099	0.14934
2341.41232	0.14945
2339.48364	0.14957
2337.55496	0.14971
2335.62629	0.14987
2333.69761	0.15003
2331.76894	0.15019
2329.84026	0.15035
2327.91159	0.15054
2325.98291	0.15077
2324.05423	0.15100
2322.12556	0.15126
2320.19688	0.15152
2318.26821	0.15177
2316.33953	0.15200
2314.41086	0.15222
2312.48218	0.15244
2310.55350	0.15263
2308.62483	0.15279
2306.69615	0.15297
2304.76748	0.15317
2302.83880	0.15336
2300.91013	0.15353
2298.98145	0.15371
2297.05277	0.15388
2295.12410	0.15405
2293.19542	0.15420
2291.26675	0.15436
2289.33807	0.15454
2287.40940	0.15474
2285.48072	0.15492
2283.55204	0.15509
2281.62337	0.15524
2279.69469	0.15540
2277.76602	0.15557
2275.83734	0.15579
2273.90867	0.15598
2271.97999	0.15610
2270.05131	0.15619
2268.12264	0.15635
2266.19396	0.15658
2264.26529	0.15681
2262.33661	0.15698
2260.40794	0.15712
2258.47926	0.15726
2256.55058	0.15742
2254.62191	0.15759
2252.69323	0.15773
2250.76456	0.15784
2248.83588	0.15799
2246.90721	0.15819
2244.97853	0.15842
2243.04985	0.15864
2241.12118	0.15880
2239.19250	0.15894
2237.26383	0.15908
2235.33515	0.15925
2233.40648	0.15942
2231.47780	0.15957
2229.54912	0.15970
2227.62045	0.15988
2225.69177	0.16006
2223.76310	0.16020
2221.83442	0.16032
2219.90575	0.16046
2217.97707	0.16065
2216.04839	0.16086
2214.11972	0.16103
2212.19104	0.16117
2210.26237	0.16131
2208.33369	0.16143
2206.40502	0.16155
2204.47634	0.16174
2202.54766	0.16196
2200.61899	0.16215
2198.69031	0.16231
2196.76164	0.16245
2194.83296	0.16259
2192.90429	0.16274
2190.97561	0.16289
2189.04693	0.16305
2187.11826	0.16318
2185.18958	0.16331
2183.26091	0.16349
2181.33223	0.16369
2179.40356	0.16390
2177.47488	0.16412
2175.54620	0.16430
2173.61753	0.16442
2171.68885	0.16456
2169.76018	0.16476
2167.83150	0.16498
2165.90283	0.16517
2163.97415	0.16534
2162.04547	0.16551
2160.11680	0.16566
2158.18812	0.16579
2156.25945	0.16591
2154.33077	0.16609
2152.40210	0.16631
2150.47342	0.16655
2148.54474	0.16673
2146.61607	0.16686
2144.68739	0.16699
2142.75872	0.16717
2140.83004	0.16736
2138.90137	0.16753
2136.97269	0.16770
2135.04401	0.16787
2133.11534	0.16805
2131.18666	0.16819
2129.25799	0.16832
2127.32931	0.16845
2125.40064	0.16861
2123.47196	0.16880
2121.54328	0.16903
2119.61461	0.16926
2117.68593	0.16942
2115.75726	0.16956
2113.82858	0.16969
2111.89991	0.16984
2109.97123	0.17001
2108.04255	0.17019
2106.11388	0.17036
2104.18520	0.17052
2102.25653	0.17069
2100.32785	0.17086
2098.39918	0.17102
2096.47050	0.17118
2094.54182	0.17133
2092.61315	0.17149
2090.68447	0.17167
2088.75580	0.17186
2086.82712	0.17203
2084.89845	0.17217
2082.96977	0.17233
2081.04109	0.17252
2079.11242	0.17271
2077.18374	0.17284
2075.25507	0.17297
2073.32639	0.17312
2071.39772	0.17329
2069.46904	0.17347
2067.54036	0.17365
2065.61169	0.17384
2063.68301	0.17400
2061.75434	0.17415
2059.82566	0.17429
2057.89699	0.17444
2055.96831	0.17463
2054.03963	0.17483
2052.11096	0.17500
2050.18228	0.17514
2048.25361	0.17531
2046.32493	0.17551
2044.39626	0.17572
2042.46758	0.17592
2040.53890	0.17609
2038.61023	0.17624
2036.68155	0.17640
2034.75288	0.17657
2032.82420	0.17675
2030.89553	0.17694
2028.96685	0.17710
2027.03817	0.17722
2025.10950	0.17736
2023.18082	0.17755
2021.25215	0.17775
2019.32347	0.17791
2017.39480	0.17803
2015.46612	0.17816
2013.53744	0.17833
2011.60877	0.17852
2009.68009	0.17869
2007.75142	0.17887
2005.82274	0.17908
2003.89407	0.17927
2001.96539	0.17944
2000.03671	0.17961
1998.10804	0.17977
1996.17936	0.17994
1994.25069	0.18006
1992.32201	0.18014
1990.39334	0.18027
1988.46466	0.18042
1986.53598	0.18055
1984.60731	0.18070
1982.67863	0.18087
1980.74996	0.18102
1978.82128	0.18117
1976.89261	0.18136
1974.96393	0.18157
1973.03525	0.18176
1971.10658	0.18190
1969.17790	0.18199
1967.24923	0.18210
1965.32055	0.18228
1963.39188	0.18246
1961.46320	0.18258
1959.53452	0.18270
1957.60585	0.18284
1955.67717	0.18301
1953.74850	0.18320
1951.81982	0.18339
1949.89115	0.18355
1947.96247	0.18369
1946.03379	0.18379
1944.10512	0.18385
1942.17644	0.18398
1940.24777	0.18421
1938.31909	0.18447
1936.39042	0.18467
1934.46174	0.18484
1932.53306	0.18499
1930.60439	0.18512
1928.67571	0.18528
1926.74704	0.18546
1924.81836	0.18557
1922.88969	0.18566
1920.96101	0.18577
1919.03233	0.18586
1917.10366	0.18603
1915.17498	0.18632
1913.24631	0.18656
1911.31763	0.18671
1909.38896	0.18689
1907.46028	0.18712
1905.53160	0.18734
1903.60293	0.18750
1901.67425	0.18763
1899.74558	0.18777
1897.81690	0.18788
1895.88823	0.18797
1893.95955	0.18810
1892.03087	0.18821
1890.10220	0.18832
1888.17352	0.18855
1886.24485	0.18884
1884.31617	0.18903
1882.38750	0.18918
1880.45882	0.18934
1878.53014	0.18949
1876.60147	0.18963
1874.67279	0.18977
1872.74412	0.18985
1870.81544	0.18980
1868.88677	0.18979
1866.95809	0.19005
1865.02941	0.19043
1863.10074	0.19072
1861.17206	0.19092
1859.24339	0.19111
1857.31471	0.19132
1855.38604	0.19150
1853.45736	0.19167
1851.52868	0.19183
1849.60001	0.19191
1847.67133	0.19185
1845.74266	0.19171
1843.81398	0.19181
1841.88531	0.19224
1839.95663	0.19264
1838.02795	0.19287
1836.09928	0.19307
1834.17060	0.19321
1832.24193	0.19320
1830.31325	0.19319
1828.38458	0.19339
1826.45590	0.19362
1824.52722	0.19382
1822.59855	0.19410
1820.66987	0.19436
1818.74120	0.19452
1816.81252	0.19465
1814.88385	0.19478
1812.95517	0.19485
1811.02649	0.19493
1809.09782	0.19512
1807.16914	0.19533
1805.24047	0.19543
1803.31179	0.19542
1801.38312	0.19543
1799.45444	0.19558
1797.52576	0.19579
1795.59709	0.19584
1793.66841	0.19575
1791.73974	0.19585
1789.81106	0.19624
1787.88239	0.19655
1785.95371	0.19662
1784.02503	0.19666
1782.09636	0.19679
1780.16768	0.19694
1778.23901	0.19713
1776.31033	0.19719
1774.38166	0.19702
1772.45298	0.19689
1770.52430	0.19699
1768.59563	0.19720
1766.66695	0.19751
1764.73828	0.19775
1762.80960	0.19778
1760.88093	0.19783
1758.95225	0.19795
1757.02357	0.19808
1755.09490	0.19819
1753.16622	0.19804
1751.23755	0.19771
1749.30887	0.19766
1747.38020	0.19788
1745.45152	0.19803
1743.52284	0.19805
1741.59417	0.19803
1739.66549	0.19811
1737.73682	0.19809
1735.80814	0.19772
1733.87947	0.19750
1731.95079	0.19792
1730.02211	0.19855
1728.09344	0.19902
1726.16476	0.19929
1724.23609	0.19940
1722.30741	0.19935
1720.37874	0.19904
1718.45006	0.19872
1716.52138	0.19881
1714.59271	0.19932
1712.66403	0.19987
1710.73536	0.20018
1708.80668	0.20018
1706.87801	0.20006
1704.94933	0.20000
1703.02065	0.19975
1701.09198	0.19933
1699.16330	0.19931
1697.23463	0.19961
1695.30595	0.19998
1693.37728	0.20054
1691.44860	0.20091
1689.51992	0.20088
1687.59125	0.20060
1685.66257	0.20013
1683.73390	0.19997
1681.80522	0.20039
1679.87655	0.20089
1677.94787	0.20098
1676.01919	0.20082
1674.09052	0.20078
1672.16184	0.20074
1670.23317	0.20062
1668.30449	0.20082
1666.37582	0.20124
1664.44714	0.20140
1662.51846	0.20144
1660.58979	0.20163
1658.66111	0.20174
1656.73244	0.20135
1654.80376	0.20052
1652.87509	0.20020
1650.94641	0.20070
1649.01773	0.20110
1647.08906	0.20117
1645.16038	0.20150
1643.23171	0.20197
1641.30303	0.20217
1639.37436	0.20202
1637.44568	0.20167
1635.51700	0.20161
1633.58833	0.20208
1631.65965	0.20251
1629.73098	0.20253
1627.80230	0.20235
1625.87363	0.20207
1623.94495	0.20169
1622.01627	0.20145
1620.08760	0.20143
1618.15892	0.20159
1616.23025	0.20212
1614.30157	0.20296
1612.37290	0.20364
1610.44422	0.20401
1608.51554	0.20425
1606.58687	0.20447
1604.65819	0.20469
1602.72952	0.20496
1600.80084	0.20525
1598.87217	0.20543
1596.94349	0.20554
1595.01481	0.20567
1593.08614	0.20583
1591.15746	0.20602
1589.22879	0.20622
1587.30011	0.20640
1585.37144	0.20657
1583.44276	0.20673
1581.51408	0.20684
1579.58541	0.20678
1577.65673	0.20657
1575.72806	0.20662
1573.79938	0.20699
1571.87071	0.20714
1569.94203	0.20710
1568.01335	0.20729
1566.08468	0.20762
1564.15600	0.20779
1562.22733	0.20752
1560.29865	0.20685
1558.36998	0.20659
1556.44130	0.20716
1554.51262	0.20791
1552.58395	0.20836
1550.65527	0.20857
1548.72660	0.20872
1546.79792	0.20874
1544.86925	0.20847
1542.94057	0.20803
1541.01189	0.20776
1539.08322	0.20808
1537.15454	0.20878
1535.22587	0.20915
1533.29719	0.20923
1531.36852	0.20944
1529.43984	0.20959
1527.51116	0.20953
1525.58249	0.20938
1523.65381	0.20904
1521.72514	0.20873
1519.79646	0.20888
1517.86779	0.20928
1515.93911	0.20962
1514.01043	0.20986
1512.08176	0.20987
1510.15308	0.20953
1508.22441	0.20909
1506.29573	0.20919
1504.36706	0.20989
1502.43838	0.21045
1500.50970	0.21044
1498.58103	0.21020
1496.65235	0.21019
1494.72368	0.21038
1492.79500	0.21033
1490.86633	0.21000
1488.93765	0.20982
1487.00897	0.20996
1485.08030	0.21014
1483.15162	0.21016
1481.22295	0.21004
1479.29427	0.20980
1477.36560	0.20935
1475.43692	0.20874
1473.50824	0.20822
1471.57957	0.20804
1469.65089	0.20811
1467.72222	0.20798
1465.79354	0.20761
1463.86487	0.20736
1461.93619	0.20717
1460.00751	0.20660
1458.07884	0.20586
1456.15016	0.20574
1454.22149	0.20624
1452.29281	0.20666
1450.36414	0.20676
1448.43546	0.20675
1446.50678	0.20689
1444.57811	0.20715
1442.64943	0.20738
1440.72076	0.20740
1438.79208	0.20709
1436.86341	0.20684
1434.93473	0.20714
1433.00605	0.20762
1431.07738	0.20784
1429.14870	0.20798
1427.22003	0.20818
1425.29135	0.20829
1423.36268	0.20824
1421.43400	0.20795
1419.50532	0.20762
1417.57665	0.20770
1415.64797	0.20811
1413.71930	0.20841
1411.79062	0.20851
1409.86195	0.20852
1407.93327	0.20844
1406.00459	0.20832
1404.07592	0.20832
1402.14724	0.20833
1400.21857	0.20816
1398.28989	0.20793
1396.36122	0.20783
1394.43254	0.20790
1392.50386	0.20804
1390.57519	0.20794
1388.64651	0.20751
1386.71784	0.20711
1384.78916	0.20703
1382.86049	0.20714
1380.93181	0.20723
1379.00313	0.20720
1377.07446	0.20703
1375.14578	0.20689
1373.21711	0.20697
1371.28843	0.20716
1369.35976	0.20723
1367.43108	0.20718
1365.50240	0.20701
1363.57373	0.20681
1361.64505	0.20683
1359.71638	0.20707
1357.78770	0.20724
1355.85903	0.20726
1353.93035	0.20729
1352.00167	0.20737
1350.07300	0.20747
1348.14432	0.20758
1346.21565	0.20762
1344.28697	0.20757
1342.35830	0.20744
1340.42962	0.20729
1338.50094	0.20724
1336.57227	0.20729
1334.64359	0.20733
1332.71492	0.20727
1330.78624	0.20715
1328.85757	0.20700
1326.92889	0.20684
1325.00021	0.20669
1323.07154	0.20654
1321.14286	0.20633
1319.21419	0.20610
1317.28551	0.20591
1315.35684	0.20573
1313.42816	0.20551
1311.49948	0.20529
1309.57081	0.20512
1307.64213	0.20500
1305.71346	0.20481
1303.78478	0.20455
1301.85611	0.20432
1299.92743	0.20411
1297.99875	0.20390
1296.07008	0.20368
1294.14140	0.20344
1292.21273	0.20322
1290.28405	0.20303
1288.35538	0.20284
1286.42670	0.20262
1284.49802	0.20241
1282.56935	0.20220
1280.64067	0.20201
1278.71200	0.20177
1276.78332	0.20143
1274.85465	0.20100
1272.92597	0.20046
1270.99729	0.19977
1269.06862	0.19890
1267.13994	0.19798
1265.21127	0.19715
1263.28259	0.19653
1261.35392	0.19627
1259.42524	0.19639
1257.49656	0.19667
1255.56789	0.19683
1253.63921	0.19682
1251.71054	0.19668
1249.78186	0.19642
1247.85319	0.19606
1245.92451	0.19566
1243.99583	0.19525
1242.06716	0.19485
1240.13848	0.19443
1238.20981	0.19394
1236.28113	0.19340
1234.35246	0.19285
1232.42378	0.19229
1230.49510	0.19173
1228.56643	0.19118
1226.63775	0.19065
1224.70908	0.19010
1222.78040	0.18952
1220.85173	0.18894
1218.92305	0.18841
1216.99437	0.18793
1215.06570	0.18740
1213.13702	0.18681
1211.20835	0.18618
1209.27967	0.18558
1207.35100	0.18504
1205.42232	0.18448
1203.49364	0.18388
1201.56497	0.18330
1199.63629	0.18276
1197.70762	0.18220
1195.77894	0.18160
1193.85027	0.18093
1191.92159	0.18024
1189.99291	0.17953
1188.06424	0.17878
1186.13556	0.17798
1184.20689	0.17714
1182.27821	0.17632
1180.34954	0.17553
1178.42086	0.17472
1176.49218	0.17382
1174.56351	0.17290
1172.63483	0.17204
1170.70616	0.17117
1168.77748	0.17025
1166.84881	0.16938
1164.92013	0.16856
1162.99145	0.16776
1161.06278	0.16698
1159.13410	0.16621
1157.20543	0.16539
1155.27675	0.16453
1153.34808	0.16369
1151.41940	0.16283
1149.49072	0.16196
1147.56205	0.16112
1145.63337	0.16026
1143.70470	0.15935
1141.77602	0.15838
1139.84735	0.15739
1137.91867	0.15633
1135.98999	0.15510
1134.06132	0.15365
1132.13264	0.15202
1130.20397	0.15026
1128.27529	0.14828
1126.34662	0.14603
1124.41794	0.14360
1122.48926	0.14116
1120.56059	0.13878
1118.63191	0.13644
1116.70324	0.13424
1114.77456	0.13232
1112.84589	0.13073
1110.91721	0.12945
1108.98853	0.12846
1107.05986	0.12774
1105.13118	0.12728
1103.20251	0.12710
1101.27383	0.12718
1099.34516	0.12752
1097.41648	0.12814
1095.48780	0.12899
1093.55913	0.12990
1091.63045	0.13077
1089.70178	0.13162
1087.77310	0.13242
1085.84443	0.13309
1083.91575	0.13360
1081.98707	0.13393
1080.05840	0.13414
1078.12972	0.13432
1076.20105	0.13447
1074.27237	0.13461
1072.34370	0.13478
1070.41502	0.13493
1068.48634	0.13503
1066.55767	0.13516
1064.62899	0.13536
1062.70032	0.13559
1060.77164	0.13585
1058.84297	0.13613
1056.91429	0.13639
1054.98561	0.13661
1053.05694	0.13685
1051.12826	0.13709
1049.19959	0.13736
1047.27091	0.13769
1045.34224	0.13811
1043.41356	0.13861
1041.48488	0.13913
1039.55621	0.13960
1037.62753	0.14002
1035.69886	0.14038
1033.77018	0.14068
1031.84151	0.14093
1029.91283	0.14121
1027.98415	0.14153
1026.05548	0.14193
1024.12680	0.14238
1022.19813	0.14282
1020.26945	0.14321
1018.34078	0.14358
1016.41210	0.14400
1014.48342	0.14446
1012.55475	0.14499
1010.62607	0.14557
1008.69740	0.14614
1006.76872	0.14666
1004.84005	0.14716
1002.91137	0.14766
1000.98269	0.14813
999.05402	0.14846
997.12534	0.14867
995.19667	0.14884
993.26799	0.14899
991.33932	0.14912
989.41064	0.14923
987.48196	0.14926
985.55329	0.14919
983.62461	0.14910
981.69594	0.14905
979.76726	0.14900
977.83859	0.14886
975.90991	0.14862
973.98123	0.14839
972.05256	0.14824
970.12388	0.14817
968.19521	0.14807
966.26653	0.14785
964.33786	0.14760
962.40918	0.14745
960.48050	0.14733
958.55183	0.14716
956.62315	0.14700
954.69448	0.14685
952.76580	0.14669
950.83713	0.14654
948.90845	0.14636
946.97977	0.14609
945.05110	0.14577
943.12242	0.14547
941.19375	0.14516
939.26507	0.14475
937.33640	0.14429
935.40772	0.14387
933.47904	0.14348
931.55037	0.14300
929.62169	0.14243
927.69302	0.14195
925.76434	0.14149
923.83567	0.14094
921.90699	0.14036
919.97831	0.13977
918.04964	0.13909
916.12096	0.13834
914.19229	0.13756
912.26361	0.13673
910.33494	0.13589
908.40626	0.13517
906.47758	0.13455
904.54891	0.13397
902.62023	0.13339
900.69156	0.13276
898.76288	0.13212
896.83421	0.13151
894.90553	0.13097
892.97685	0.13047
891.04818	0.13001
889.11950	0.12956
887.19083	0.12909
885.26215	0.12870
883.33348	0.12839
881.40480	0.12804
879.47612	0.12766
877.54745	0.12735
875.61877	0.12715
873.69010	0.12697
871.76142	0.12672
869.83275	0.12645
867.90407	0.12621
865.97539	0.12596
864.04672	0.12571
862.11804	0.12555
860.18937	0.12551
858.26069	0.12546
856.33202	0.12534
854.40334	0.12515
852.47466	0.12490
850.54599	0.12460
848.61731	0.12429
846.68864	0.12404
844.75996	0.12379
842.83129	0.12353
840.90261	0.12324
838.97394	0.12287
837.04526	0.12238
835.11658	0.12176
833.18791	0.12103
831.25923	0.12017
829.33056	0.11915
827.40188	0.11801
825.47321	0.11691
823.54453	0.11592
821.61585	0.11505
819.68718	0.11432
817.75850	0.11379
815.82983	0.11339
813.90115	0.11304
811.97248	0.11271
810.04380	0.11246
808.11512	0.11226
806.18645	0.11207
804.25777	0.11199
802.32910	0.11201
800.40042	0.11189
798.47175	0.11142
796.54307	0.11069
794.61439	0.11003
792.68572	0.10963
790.75704	0.10938
788.82837	0.10913
786.89969	0.10887
784.97102	0.10858
783.04234	0.10830
781.11366	0.10802
779.18499	0.10773
777.25631	0.10745
775.32764	0.10724
773.39896	0.10699
771.47029	0.10660
769.54161	0.10615
767.61293	0.10571
765.68426	0.10528
763.75558	0.10483
761.82691	0.10434
759.89823	0.10381
757.96956	0.10326
756.04088	0.10262
754.11220	0.10195
752.18353	0.10133
750.25485	0.10071
748.32618	0.09999
746.39750	0.09919
744.46883	0.09833
742.54015	0.09740
740.61147	0.09654
738.68280	0.09600
736.75412	0.09582
734.82545	0.09574
732.89677	0.09565
730.96810	0.09565
729.03942	0.09574
727.11074	0.09586
725.18207	0.09601
723.25339	0.09614
721.32472	0.09624
719.39604	0.09640
717.46737	0.09670
715.53869	0.09719
713.61001	0.09779
711.68134	0.09820
709.75266	0.09830
707.82399	0.09827
705.89531	0.09827
703.96664	0.09824
702.03796	0.09802
700.10928	0.09756
698.18061	0.09696
696.25193	0.09635
694.32326	0.09576
692.39458	0.09515
690.46591	0.09452
688.53723	0.09389
686.60855	0.09332
684.67988	0.09284
682.75120	0.09243
680.82253	0.09202
678.89385	0.09151
676.96518	0.09084
675.03650	0.09011
673.10782	0.08938
671.17915	0.08857
669.25047	0.08767
667.32180	0.08686
665.39312	0.08607
663.46445	0.08522
661.53577	0.08439
659.60709	0.08364
657.67842	0.08289
655.74974	0.08208
653.82107	0.08122
651.89239	0.08034
649.96372	0.07944
648.03504	0.07853
646.10636	0.07763
644.17769	0.07673
642.24901	0.07571
640.32034	0.07460
638.39166	0.07353
636.46299	0.07251
634.53431	0.07135
632.60563	0.06989
630.67696	0.06761
628.74828	0.06403
626.81961	0.05949
624.89093	0.05486
622.96226	0.05106
621.03358	0.04872
619.10490	0.04754
617.17623	0.04676
615.24755	0.04591
613.31888	0.04484
611.39020	0.04380
609.46153	0.04327
607.53285	0.04339
605.60417	0.04389
603.67550	0.04452
601.74682	0.04528
599.81815	0.04612
597.88947	0.04692
595.96080	0.04754
594.03212	0.04800
592.10344	0.04835
590.17477	0.04854
588.24609	0.04850
586.31742	0.04828
584.38874	0.04800
582.46007	0.04773
580.53139	0.04742
578.60271	0.04696
576.67404	0.04641
574.74536	0.04589
572.81669	0.04542
570.88801	0.04482
568.95934	0.04405
567.03066	0.04351
565.10198	0.04323
563.17331	0.04290
561.24463	0.04254
559.31596	0.04231
557.38728	0.04213
555.45861	0.04192
553.52993	0.04166
551.60125	0.04139
549.67258	0.04116
547.74390	0.04096
545.81523	0.04087
543.88655	0.04084
541.95788	0.04067
540.02920	0.04031
538.10052	0.04000
536.17185	0.03994
534.24317	0.04001
532.31450	0.03989
530.38582	0.03943
528.45715	0.03886
526.52847	0.03846
524.59979	0.03820
522.67112	0.03792
520.74244	0.03758
518.81377	0.03717
516.88509	0.03658
514.95642	0.03597
513.02774	0.03558
511.09906	0.03533
509.17039	0.03502
507.24171	0.03467
505.31304	0.03438
503.38436	0.03408
501.45569	0.03370
499.52701	0.03321
497.59833	0.03260
495.66966	0.03199
493.74098	0.03148
491.81231	0.03100
489.88363	0.03044
487.95496	0.02982
486.02628	0.02924
484.09760	0.02874
482.16893	0.02823
480.24025	0.02764
478.31158	0.02700
476.38290	0.02634
474.45423	0.02575
472.52555	0.02519
470.59687	0.02474
468.66820	0.02453
466.73952	0.02436
464.81085	0.02406
462.88217	0.02370
460.95350	0.02336
459.02482	0.02313
457.09614	0.02306
455.16747	0.02311
453.23879	0.02321
451.31012	0.02326
449.38144	0.02323
447.45277	0.02312
445.52409	0.02285
443.59541	0.02258
441.66674	0.02242
439.73806	0.02214
437.80939	0.02167
435.88071	0.02121
433.95204	0.02074
432.02336	0.02011
430.09468	0.01940
428.16601	0.01870
426.23733	0.01800
424.30866	0.01733
422.37998	0.01668
420.45131	0.01600
418.52263	0.01532
416.59395	0.01467
414.66528	0.01401
412.73660	0.01336
410.80793	0.01278
408.87925	0.01219
406.95058	0.01156
405.02190	0.01094
403.09322	0.01036
401.16455	0.00977
399.23587	0.00919
397.30720	0.00868
395.37852	0.00816
393.44985	0.00755
391.52117	0.00693
389.59249	0.00638
387.66382	0.00587
385.73514	0.00542
383.80647	0.00507
381.87779	0.00483
379.94912	0.00457
378.02044	0.00427
376.09176	0.00397
374.16309	0.00359
372.23441	0.00314
370.30574	0.00287
368.37706	0.00273
