7496.76250	0.00119
7494.83382	0.00118
7492.90514	0.00120
7490.97647	0.00122
7489.04779	0.00123
7487.11912	0.00124
7485.19044	0.00123
7483.26177	0.00122
7481.33309	0.00122
7479.40441	0.00123
7477.47574	0.00123
7475.54706	0.00124
7473.61839	0.00126
7471.68971	0.00127
7469.76104	0.00127
7467.83236	0.00125
7465.90368	0.00124
7463.97501	0.00125
7462.04633	0.00126
7460.11766	0.00126
7458.18898	0.00126
7456.26031	0.00127
7454.33163	0.00128
7452.40295	0.00129
7450.47428	0.00128
7448.54560	0.00129
7446.61693	0.00129
7444.68825	0.00131
7442.75958	0.00132
7440.83090	0.00132
7438.90222	0.00131
7436.97355	0.00130
7435.04487	0.00130
7433.11620	0.00131
7431.18752	0.00132
7429.25885	0.00131
7427.33017	0.00131
7425.40149	0.00131
7423.47282	0.00132
7421.54414	0.00135
7419.61547	0.00136
7417.68679	0.00135
7415.75812	0.00136
7413.82944	0.00137
7411.90076	0.00137
7409.97209	0.00136
7408.04341	0.00135
7406.11474	0.00135
7404.18606	0.00136
7402.25739	0.00138
7400.32871	0.00139
7398.40003	0.00140
7396.47136	0.00140
7394.54268	0.00139
7392.61401	0.00138
7390.68533	0.00137
7388.75666	0.00139
7386.82798	0.00141
7384.89930	0.00141
7382.97063	0.00141
7381.04195	0.00142
7379.11328	0.00141
7377.18460	0.00139
7375.25593	0.00139
7373.32725	0.00140
7371.39857	0.00142
7369.46990	0.00142
7367.54122	0.00143
7365.61255	0.00143
7363.68387	0.00143
7361.75520	0.00144
7359.82652	0.00145
7357.89784	0.00146
7355.96917	0.00147
7354.04049	0.00148
7352.11182	0.00148
7350.18314	0.00148
7348.25447	0.00148
7346.32579	0.00148
7344.39711	0.00149
7342.46844	0.00149
7340.53976	0.00150
7338.61109	0.00152
7336.68241	0.00152
7334.75374	0.00152
7332.82506	0.00152
7330.89638	0.00151
7328.96771	0.00152
7327.03903	0.00153
7325.11036	0.00153
7323.18168	0.00152
7321.25301	0.00151
7319.32433	0.00151
7317.39565	0.00151
7315.46698	0.00151
7313.53830	0.00152
7311.60963	0.00154
7309.68095	0.00154
7307.75228	0.00154
7305.82360	0.00154
7303.89492	0.00156
7301.96625	0.00156
7300.03757	0.00156
7298.10890	0.00156
7296.18022	0.00157
7294.25155	0.00159
7292.32287	0.00160
7290.39419	0.00160
7288.46552	0.00159
7286.53684	0.00158
7284.60817	0.00158
7282.67949	0.00158
7280.75082	0.00158
7278.82214	0.00160
7276.89346	0.00161
7274.96479	0.00160
7273.03611	0.00160
7271.10744	0.00161
7269.17876	0.00162
7267.25009	0.00162
7265.32141	0.00161
7263.39273	0.00162
7261.46406	0.00163
7259.53538	0.00164
7257.60671	0.00164
7255.67803	0.00164
7253.74936	0.00164
7251.82068	0.00166
7249.89200	0.00167
7247.96333	0.00167
7246.03465	0.00167
7244.10598	0.00167
7242.17730	0.00168
7240.24863	0.00168
7238.31995	0.00167
7236.39127	0.00167
7234.46260	0.00168
7232.53392	0.00170
7230.60525	0.00171
7228.67657	0.00170
7226.74790	0.00168
7224.81922	0.00167
7222.89054	0.00168
7220.96187	0.00170
7219.03319	0.00171
7217.10452	0.00172
7215.17584	0.00173
7213.24717	0.00174
7211.31849	0.00174
7209.38981	0.00174
7207.46114	0.00175
7205.53246	0.00176
7203.60379	0.00175
7201.67511	0.00176
7199.74644	0.00177
7197.81776	0.00177
7195.88908	0.00178
7193.96041	0.00179
7192.03173	0.00179
7190.10306	0.00179
7188.17438	0.00179
7186.24571	0.00179
7184.31703	0.00180
7182.38835	0.00181
7180.45968	0.00181
7178.53100	0.00180
7176.60233	0.00180
7174.67365	0.00181
7172.74498	0.00182
7170.81630	0.00182
7168.88762	0.00182
7166.95895	0.00183
7165.03027	0.00185
7163.10160	0.00185
7161.17292	0.00185
7159.24425	0.00184
7157.31557	0.00183
7155.38689	0.00184
7153.45822	0.00185
7151.52954	0.00186
7149.60087	0.00187
7147.67219	0.00187
7145.74352	0.00186
7143.81484	0.00186
7141.88616	0.00187
7139.95749	0.00188
7138.02881	0.00188
7136.10014	0.00188
7134.17146	0.00188
7132.24279	0.00189
7130.31411	0.00191
7128.38543	0.00193
7126.45676	0.00194
7124.52808	0.00193
7122.59941	0.00193
7120.67073	0.00193
7118.74206	0.00193
7116.81338	0.00193
7114.88470	0.00194
7112.95603	0.00194
7111.02735	0.00195
7109.09868	0.00195
7107.17000	0.00195
7105.24133	0.00194
7103.31265	0.00194
7101.38397	0.00196
7099.45530	0.00197
7097.52662	0.00197
7095.59795	0.00197
7093.66927	0.00198
7091.74060	0.00197
7089.81192	0.00198
7087.88324	0.00201
7085.95457	0.00203
7084.02589	0.00203
7082.09722	0.00201
7080.16854	0.00202
7078.23987	0.00203
7076.31119	0.00203
7074.38251	0.00203
7072.45384	0.00204
7070.52516	0.00205
7068.59649	0.00206
7066.66781	0.00206
7064.73914	0.00206
7062.81046	0.00205
7060.88178	0.00206
7058.95311	0.00208
7057.02443	0.00209
7055.09576	0.00210
7053.16708	0.00208
7051.23841	0.00206
7049.30973	0.00205
7047.38105	0.00206
7045.45238	0.00209
7043.52370	0.00210
7041.59503	0.00209
7039.66635	0.00209
7037.73768	0.00210
7035.80900	0.00211
7033.88032	0.00212
7031.95165	0.00212
7030.02297	0.00213
7028.09430	0.00214
7026.16562	0.00215
7024.23695	0.00216
7022.30827	0.00216
7020.37959	0.00216
7018.45092	0.00215
7016.52224	0.00215
7014.59357	0.00216
7012.66489	0.00216
7010.73622	0.00215
7008.80754	0.00216
7006.87886	0.00218
7004.95019	0.00219
7003.02151	0.00220
7001.09284	0.00220
6999.16416	0.00220
6997.23549	0.00220
6995.30681	0.00220
6993.37813	0.00220
6991.44946	0.00220
6989.52078	0.00221
6987.59211	0.00221
6985.66343	0.00222
6983.73476	0.00222
6981.80608	0.00224
6979.87740	0.00227
6977.94873	0.00228
6976.02005	0.00228
6974.09138	0.00228
6972.16270	0.00229
6970.23403	0.00230
6968.30535	0.00231
6966.37667	0.00230
6964.44800	0.00229
6962.51932	0.00229
6960.59065	0.00229
6958.66197	0.00230
6956.73330	0.00231
6954.80462	0.00231
6952.87594	0.00230
6950.94727	0.00229
6949.01859	0.00230
6947.08992	0.00232
6945.16124	0.00234
6943.23257	0.00236
6941.30389	0.00236
6939.37521	0.00236
6937.44654	0.00237
6935.51786	0.00238
6933.58919	0.00238
6931.66051	0.00238
6929.73184	0.00239
6927.80316	0.00239
6925.87448	0.00238
6923.94581	0.00239
6922.01713	0.00238
6920.08846	0.00239
6918.15978	0.00239
6916.23111	0.00240
6914.30243	0.00241
6912.37375	0.00242
6910.44508	0.00242
6908.51640	0.00241
6906.58773	0.00241
6904.65905	0.00243
6902.73038	0.00245
6900.80170	0.00245
6898.87302	0.00245
6896.94435	0.00245
6895.01567	0.00245
6893.08700	0.00246
6891.15832	0.00247
6889.22965	0.00247
6887.30097	0.00248
6885.37229	0.00249
6883.44362	0.00250
6881.51494	0.00250
6879.58627	0.00250
6877.65759	0.00250
6875.72892	0.00251
6873.80024	0.00253
6871.87156	0.00253
6869.94289	0.00253
6868.01421	0.00252
6866.08554	0.00254
6864.15686	0.00257
6862.22819	0.00258
6860.29951	0.00258
6858.37083	0.00256
6856.44216	0.00255
6854.51348	0.00255
6852.58481	0.00257
6850.65613	0.00258
6848.72746	0.00258
6846.79878	0.00260
6844.87010	0.00263
6842.94143	0.00264
6841.01275	0.00262
6839.08408	0.00262
6837.15540	0.00262
6835.22673	0.00262
6833.29805	0.00262
6831.36937	0.00264
6829.44070	0.00265
6827.51202	0.00267
6825.58335	0.00268
6823.65467	0.00269
6821.72600	0.00270
6819.79732	0.00271
6817.86864	0.00273
6815.93997	0.00272
6814.01129	0.00270
6812.08262	0.00271
6810.15394	0.00271
6808.22527	0.00271
6806.29659	0.00271
6804.36791	0.00273
6802.43924	0.00274
6800.51056	0.00274
6798.58189	0.00275
6796.65321	0.00276
6794.72454	0.00278
6792.79586	0.00278
6790.86718	0.00277
6788.93851	0.00277
6787.00983	0.00278
6785.08116	0.00279
6783.15248	0.00280
6781.22381	0.00280
6779.29513	0.00281
6777.36645	0.00282
6775.43778	0.00283
6773.50910	0.00283
6771.58043	0.00281
6769.65175	0.00280
6767.72308	0.00281
6765.79440	0.00282
6763.86572	0.00284
6761.93705	0.00285
6760.00837	0.00284
6758.07970	0.00284
6756.15102	0.00286
6754.22235	0.00288
6752.29367	0.00289
6750.36499	0.00290
6748.43632	0.00291
6746.50764	0.00291
6744.57897	0.00291
6742.65029	0.00291
6740.72162	0.00290
6738.79294	0.00289
6736.86426	0.00290
6734.93559	0.00292
6733.00691	0.00294
6731.07824	0.00296
6729.14956	0.00297
6727.22089	0.00297
6725.29221	0.00297
6723.36353	0.00297
6721.43486	0.00298
6719.50618	0.00298
6717.57751	0.00297
6715.64883	0.00297
6713.72016	0.00298
6711.79148	0.00300
6709.86280	0.00301
6707.93413	0.00302
6706.00545	0.00303
6704.07678	0.00305
6702.14810	0.00306
6700.21943	0.00306
6698.29075	0.00305
6696.36207	0.00306
6694.43340	0.00306
6692.50472	0.00305
6690.57605	0.00305
6688.64737	0.00306
6686.71870	0.00307
6684.79002	0.00309
6682.86134	0.00311
6680.93267	0.00312
6679.00399	0.00312
6677.07532	0.00312
6675.14664	0.00312
6673.21797	0.00313
6671.28929	0.00315
6669.36061	0.00315
6667.43194	0.00315
6665.50326	0.00315
6663.57459	0.00316
6661.64591	0.00316
6659.71724	0.00316
6657.78856	0.00317
6655.85988	0.00318
6653.93121	0.00320
6652.00253	0.00323
6650.07386	0.00324
6648.14518	0.00324
6646.21651	0.00324
6644.28783	0.00324
6642.35915	0.00324
6640.43048	0.00323
6638.50180	0.00323
6636.57313	0.00323
6634.64445	0.00324
6632.71578	0.00325
6630.78710	0.00327
6628.85842	0.00329
6626.92975	0.00329
6625.00107	0.00329
6623.07240	0.00329
6621.14372	0.00328
6619.21505	0.00329
6617.28637	0.00331
6615.35769	0.00334
6613.42902	0.00337
6611.50034	0.00338
6609.57167	0.00339
6607.64299	0.00339
6605.71432	0.00338
6603.78564	0.00339
6601.85696	0.00340
6599.92829	0.00341
6597.99961	0.00340
6596.07094	0.00341
6594.14226	0.00341
6592.21359	0.00341
6590.28491	0.00341
6588.35623	0.00342
6586.42756	0.00345
6584.49888	0.00346
6582.57021	0.00346
6580.64153	0.00347
6578.71286	0.00347
6576.78418	0.00347
6574.85550	0.00348
6572.92683	0.00348
6570.99815	0.00350
6569.06948	0.00351
6567.14080	0.00352
6565.21213	0.00353
6563.28345	0.00353
6561.35477	0.00352
6559.42610	0.00351
6557.49742	0.00351
6555.56875	0.00352
6553.64007	0.00353
6551.71140	0.00355
6549.78272	0.00355
6547.85404	0.00356
6545.92537	0.00356
6543.99669	0.00357
6542.06802	0.00357
6540.13934	0.00358
6538.21067	0.00359
6536.28199	0.00361
6534.35331	0.00363
6532.42464	0.00366
6530.49596	0.00368
6528.56729	0.00368
6526.63861	0.00368
6524.70994	0.00368
6522.78126	0.00369
6520.85258	0.00370
6518.92391	0.00370
6516.99523	0.00371
6515.06656	0.00372
6513.13788	0.00372
6511.20921	0.00372
6509.28053	0.00373
6507.35185	0.00374
6505.42318	0.00375
6503.49450	0.00376
6501.56583	0.00378
6499.63715	0.00378
6497.70848	0.00379
6495.77980	0.00380
6493.85112	0.00381
6491.92245	0.00381
6489.99377	0.00382
6488.06510	0.00383
6486.13642	0.00385
6484.20775	0.00387
6482.27907	0.00388
6480.35039	0.00387
6478.42172	0.00387
6476.49304	0.00387
6474.56437	0.00388
6472.63569	0.00388
6470.70702	0.00388
6468.77834	0.00389
6466.84966	0.00391
6464.92099	0.00392
6462.99231	0.00393
6461.06364	0.00395
6459.13496	0.00396
6457.20629	0.00396
6455.27761	0.00396
6453.34893	0.00397
6451.42026	0.00401
6449.49158	0.00403
6447.56291	0.00403
6445.63423	0.00402
6443.70556	0.00403
6441.77688	0.00404
6439.84820	0.00405
6437.91953	0.00404
6435.99085	0.00404
6434.06218	0.00404
6432.13350	0.00404
6430.20483	0.00405
6428.27615	0.00406
6426.34747	0.00408
6424.41880	0.00409
6422.49012	0.00411
6420.56145	0.00412
6418.63277	0.00413
6416.70410	0.00413
6414.77542	0.00413
6412.84674	0.00414
6410.91807	0.00415
6408.98939	0.00415
6407.06072	0.00417
6405.13204	0.00418
6403.20337	0.00419
6401.27469	0.00418
6399.34601	0.00418
6397.41734	0.00418
6395.48866	0.00420
6393.55999	0.00423
6391.63131	0.00425
6389.70264	0.00426
6387.77396	0.00427
6385.84528	0.00430
6383.91661	0.00431
6381.98793	0.00430
6380.05926	0.00429
6378.13058	0.00430
6376.20191	0.00431
6374.27323	0.00433
6372.34455	0.00435
6370.41588	0.00436
6368.48720	0.00437
6366.55853	0.00437
6364.62985	0.00437
6362.70118	0.00438
6360.77250	0.00440
6358.84382	0.00442
6356.91515	0.00442
6354.98647	0.00441
6353.05780	0.00442
6351.12912	0.00444
6349.20045	0.00446
6347.27177	0.00446
6345.34309	0.00446
6343.41442	0.00446
6341.48574	0.00447
6339.55707	0.00448
6337.62839	0.00449
6335.69972	0.00451
6333.77104	0.00452
6331.84236	0.00453
6329.91369	0.00453
6327.98501	0.00453
6326.05634	0.00454
6324.12766	0.00457
6322.19899	0.00458
6320.27031	0.00457
6318.34163	0.00457
6316.41296	0.00459
6314.48428	0.00462
6312.55561	0.00463
6310.62693	0.00463
6308.69826	0.00463
6306.76958	0.00463
6304.84090	0.00465
6302.91223	0.00467
6300.98355	0.00467
6299.05488	0.00468
6297.12620	0.00469
6295.19753	0.00469
6293.26885	0.00470
6291.34017	0.00471
6289.41150	0.00473
6287.48282	0.00475
6285.55415	0.00476
6283.62547	0.00477
6281.69680	0.00479
6279.76812	0.00482
6277.83944	0.00482
6275.91077	0.00480
6273.98209	0.00478
6272.05342	0.00479
6270.12474	0.00480
6268.19607	0.00483
6266.26739	0.00485
6264.33871	0.00486
6262.41004	0.00487
6260.48136	0.00488
6258.55269	0.00490
6256.62401	0.00491
6254.69534	0.00490
6252.76666	0.00491
6250.83798	0.00493
6248.90931	0.00495
6246.98063	0.00497
6245.05196	0.00497
6243.12328	0.00498
6241.19461	0.00499
6239.26593	0.00500
6237.33725	0.00500
6235.40858	0.00501
6233.47990	0.00501
6231.55123	0.00503
6229.62255	0.00505
6227.69388	0.00505
6225.76520	0.00505
6223.83652	0.00505
6221.90785	0.00507
6219.97917	0.00509
6218.05050	0.00511
6216.12182	0.00512
6214.19315	0.00512
6212.26447	0.00513
6210.33579	0.00514
6208.40712	0.00516
6206.47844	0.00517
6204.54977	0.00518
6202.62109	0.00520
6200.69242	0.00520
6198.76374	0.00520
6196.83506	0.00521
6194.90639	0.00525
6192.97771	0.00528
6191.04904	0.00528
6189.12036	0.00526
6187.19169	0.00526
6185.26301	0.00527
6183.33433	0.00530
6181.40566	0.00532
6179.47698	0.00533
6177.54831	0.00532
6175.61963	0.00531
6173.69096	0.00532
6171.76228	0.00535
6169.83360	0.00538
6167.90493	0.00540
6165.97625	0.00542
6164.04758	0.00544
6162.11890	0.00545
6160.19023	0.00544
6158.26155	0.00543
6156.33287	0.00544
6154.40420	0.00544
6152.47552	0.00544
6150.54685	0.00544
6148.61817	0.00548
6146.68950	0.00552
6144.76082	0.00556
6142.83214	0.00557
6140.90347	0.00556
6138.97479	0.00557
6137.04612	0.00559
6135.11744	0.00560
6133.18877	0.00561
6131.26009	0.00562
6129.33141	0.00563
6127.40274	0.00563
6125.47406	0.00562
6123.54539	0.00563
6121.61671	0.00565
6119.68804	0.00567
6117.75936	0.00569
6115.83068	0.00570
6113.90201	0.00573
6111.97333	0.00575
6110.04466	0.00576
6108.11598	0.00575
6106.18731	0.00573
6104.25863	0.00572
6102.32995	0.00574
6100.40128	0.00576
6098.47260	0.00578
6096.54393	0.00579
6094.61525	0.00581
6092.68658	0.00581
6090.75790	0.00584
6088.82922	0.00587
6086.90055	0.00588
6084.97187	0.00588
6083.04320	0.00589
6081.11452	0.00591
6079.18585	0.00593
6077.25717	0.00595
6075.32849	0.00596
6073.39982	0.00597
6071.47114	0.00598
6069.54247	0.00600
6067.61379	0.00600
6065.68512	0.00599
6063.75644	0.00599
6061.82776	0.00601
6059.89909	0.00603
6057.97041	0.00604
6056.04174	0.00606
6054.11306	0.00608
6052.18439	0.00611
6050.25571	0.00613
6048.32703	0.00614
6046.39836	0.00615
6044.46968	0.00616
6042.54101	0.00617
6040.61233	0.00618
6038.68366	0.00619
6036.75498	0.00620
6034.82630	0.00620
6032.89763	0.00620
6030.96895	0.00621
6029.04028	0.00623
6027.11160	0.00624
6025.18293	0.00626
6023.25425	0.00628
6021.32557	0.00630
6019.39690	0.00632
6017.46822	0.00633
6015.53955	0.00634
6013.61087	0.00636
6011.68220	0.00638
6009.75352	0.00638
6007.82484	0.00637
6005.89617	0.00637
6003.96749	0.00638
6002.03882	0.00640
6000.11014	0.00642
5998.18147	0.00644
5996.25279	0.00646
5994.32411	0.00650
5992.39544	0.00653
5990.46676	0.00655
5988.53809	0.00654
5986.60941	0.00653
5984.68074	0.00653
5982.75206	0.00654
5980.82338	0.00655
5978.89471	0.00655
5976.96603	0.00657
5975.03736	0.00660
5973.10868	0.00663
5971.18001	0.00665
5969.25133	0.00666
5967.32265	0.00667
5965.39398	0.00668
5963.46530	0.00671
5961.53663	0.00672
5959.60795	0.00674
5957.67928	0.00675
5955.75060	0.00677
5953.82192	0.00677
5951.89325	0.00678
5949.96457	0.00679
5948.03590	0.00680
5946.10722	0.00681
5944.17855	0.00681
5942.24987	0.00682
5940.32119	0.00686
5938.39252	0.00690
5936.46384	0.00693
5934.53517	0.00693
5932.60649	0.00693
5930.67782	0.00694
5928.74914	0.00694
5926.82046	0.00695
5924.89179	0.00697
5922.96311	0.00698
5921.03444	0.00700
5919.10576	0.00702
5917.17709	0.00703
5915.24841	0.00704
5913.31973	0.00706
5911.39106	0.00708
5909.46238	0.00711
5907.53371	0.00713
5905.60503	0.00714
5903.67636	0.00714
5901.74768	0.00716
5899.81900	0.00718
5897.89033	0.00718
5895.96165	0.00718
5894.03298	0.00720
5892.10430	0.00723
5890.17563	0.00725
5888.24695	0.00726
5886.31827	0.00727
5884.38960	0.00730
5882.46092	0.00733
5880.53225	0.00733
5878.60357	0.00732
5876.67490	0.00733
5874.74622	0.00735
5872.81755	0.00736
5870.88887	0.00737
5868.96019	0.00738
5867.03152	0.00739
5865.10284	0.00741
5863.17417	0.00742
5861.24549	0.00745
5859.31682	0.00747
5857.38814	0.00747
5855.45946	0.00747
5853.53079	0.00750
5851.60211	0.00755
5849.67344	0.00758
5847.74476	0.00758
5845.81609	0.00757
5843.88741	0.00757
5841.95873	0.00758
5840.03006	0.00760
5838.10138	0.00763
5836.17271	0.00766
5834.24403	0.00768
5832.31536	0.00769
5830.38668	0.00770
5828.45800	0.00772
5826.52933	0.00774
5824.60065	0.00777
5822.67198	0.00780
5820.74330	0.00782
5818.81463	0.00783
5816.88595	0.00784
5814.95727	0.00785
5813.02860	0.00786
5811.09992	0.00786
5809.17125	0.00788
5807.24257	0.00790
5805.31390	0.00792
5803.38522	0.00793
5801.45654	0.00793
5799.52787	0.00796
5797.59919	0.00798
5795.67052	0.00799
5793.74184	0.00800
5791.81317	0.00801
5789.88449	0.00804
5787.95581	0.00806
5786.02714	0.00808
5784.09846	0.00807
5782.16979	0.00807
5780.24111	0.00809
5778.31244	0.00811
5776.38376	0.00814
5774.45508	0.00817
5772.52641	0.00820
5770.59773	0.00823
5768.66906	0.00824
5766.74038	0.00824
5764.81171	0.00826
5762.88303	0.00827
5760.95435	0.00828
5759.02568	0.00830
5757.09700	0.00833
5755.16833	0.00835
5753.23965	0.00837
5751.31098	0.00841
5749.38230	0.00842
5747.45362	0.00841
5745.52495	0.00841
5743.59627	0.00842
5741.66760	0.00845
5739.73892	0.00847
5737.81025	0.00848
5735.88157	0.00849
5733.95289	0.00850
5732.02422	0.00852
5730.09554	0.00855
5728.16687	0.00857
5726.23819	0.00860
5724.30952	0.00862
5722.38084	0.00865
5720.45216	0.00867
5718.52349	0.00868
5716.59481	0.00868
5714.66614	0.00867
5712.73746	0.00868
5710.80879	0.00870
5708.88011	0.00873
5706.95143	0.00876
5705.02276	0.00878
5703.09408	0.00878
5701.16541	0.00878
5699.23673	0.00880
5697.30806	0.00883
5695.37938	0.00887
5693.45070	0.00890
5691.52203	0.00892
5689.59335	0.00891
5687.66468	0.00890
5685.73600	0.00892
5683.80733	0.00896
5681.87865	0.00899
5679.94997	0.00901
5678.02130	0.00902
5676.09262	0.00904
5674.16395	0.00907
5672.23527	0.00911
5670.30660	0.00912
5668.37792	0.00912
5666.44924	0.00913
5664.52057	0.00915
5662.59189	0.00917
5660.66322	0.00919
5658.73454	0.00920
5656.80587	0.00920
5654.87719	0.00921
5652.94851	0.00925
5651.01984	0.00928
5649.09116	0.00929
5647.16249	0.00931
5645.23381	0.00934
5643.30514	0.00937
5641.37646	0.00939
5639.44778	0.00940
5637.51911	0.00940
5635.59043	0.00940
5633.66176	0.00942
5631.73308	0.00945
5629.80441	0.00947
5627.87573	0.00947
5625.94705	0.00948
5624.01838	0.00951
5622.08970	0.00953
5620.16103	0.00956
5618.23235	0.00959
5616.30368	0.00960
5614.37500	0.00961
5612.44632	0.00963
5610.51765	0.00967
5608.58897	0.00968
5606.66030	0.00969
5604.73162	0.00970
5602.80295	0.00973
5600.87427	0.00978
5598.94559	0.00981
5597.01692	0.00983
5595.08824	0.00984
5593.15957	0.00985
5591.23089	0.00987
5589.30222	0.00990
5587.37354	0.00992
5585.44486	0.00992
5583.51619	0.00994
5581.58751	0.00996
5579.65884	0.00998
5577.73016	0.01001
5575.80149	0.01003
5573.87281	0.01004
5571.94413	0.01005
5570.01546	0.01008
5568.08678	0.01011
5566.15811	0.01014
5564.22943	0.01015
5562.30076	0.01016
5560.37208	0.01017
5558.44340	0.01019
5556.51473	0.01019
5554.58605	0.01020
5552.65738	0.01020
5550.72870	0.01021
5548.80003	0.01023
5546.87135	0.01027
5544.94267	0.01030
5543.01400	0.01032
5541.08532	0.01033
5539.15665	0.01034
5537.22797	0.01037
5535.29930	0.01041
5533.37062	0.01044
5531.44194	0.01045
5529.51327	0.01048
5527.58459	0.01051
5525.65592	0.01054
5523.72724	0.01054
5521.79857	0.01056
5519.86989	0.01058
5517.94121	0.01061
5516.01254	0.01062
5514.08386	0.01063
5512.15519	0.01065
5510.22651	0.01067
5508.29784	0.01067
5506.36916	0.01069
5504.44048	0.01072
5502.51181	0.01075
5500.58313	0.01077
5498.65446	0.01078
5496.72578	0.01080
5494.79711	0.01079
5492.86843	0.01080
5490.93975	0.01082
5489.01108	0.01086
5487.08240	0.01090
5485.15373	0.01093
5483.22505	0.01095
5481.29638	0.01097
5479.36770	0.01099
5477.43902	0.01102
5475.51035	0.01104
5473.58167	0.01104
5471.65300	0.01105
5469.72432	0.01108
5467.79565	0.01110
5465.86697	0.01112
5463.93829	0.01115
5462.00962	0.01117
5460.08094	0.01119
5458.15227	0.01121
5456.22359	0.01124
5454.29492	0.01126
5452.36624	0.01128
5450.43756	0.01128
5448.50889	0.01130
5446.58021	0.01133
5444.65154	0.01136
5442.72286	0.01139
5440.79419	0.01142
5438.86551	0.01144
5436.93683	0.01145
5435.00816	0.01147
5433.07948	0.01149
5431.15081	0.01152
5429.22213	0.01154
5427.29346	0.01157
5425.36478	0.01159
5423.43610	0.01161
5421.50743	0.01163
5419.57875	0.01165
5417.65008	0.01166
5415.72140	0.01168
5413.79273	0.01172
5411.86405	0.01174
5409.93537	0.01175
5408.00670	0.01175
5406.07802	0.01177
5404.14935	0.01179
5402.22067	0.01180
5400.29200	0.01181
5398.36332	0.01184
5396.43464	0.01188
5394.50597	0.01190
5392.57729	0.01191
5390.64862	0.01194
5388.71994	0.01199
5386.79127	0.01202
5384.86259	0.01203
5382.93391	0.01204
5381.00524	0.01205
5379.07656	0.01207
5377.14789	0.01210
5375.21921	0.01214
5373.29054	0.01217
5371.36186	0.01218
5369.43318	0.01220
5367.50451	0.01223
5365.57583	0.01225
5363.64716	0.01227
5361.71848	0.01230
5359.78981	0.01233
5357.86113	0.01234
5355.93245	0.01235
5354.00378	0.01237
5352.07510	0.01240
5350.14643	0.01244
5348.21775	0.01247
5346.28908	0.01247
5344.36040	0.01248
5342.43172	0.01252
5340.50305	0.01255
5338.57437	0.01257
5336.64570	0.01259
5334.71702	0.01262
5332.78835	0.01264
5330.85967	0.01266
5328.93099	0.01266
5327.00232	0.01268
5325.07364	0.01271
5323.14497	0.01274
5321.21629	0.01277
5319.28762	0.01279
5317.35894	0.01280
5315.43026	0.01283
5313.50159	0.01286
5311.57291	0.01288
5309.64424	0.01290
5307.71556	0.01293
5305.78689	0.01297
5303.85821	0.01302
5301.92953	0.01306
5300.00086	0.01307
5298.07218	0.01306
5296.14351	0.01308
5294.21483	0.01311
5292.28616	0.01313
5290.35748	0.01314
5288.42880	0.01313
5286.50013	0.01315
5284.57145	0.01319
5282.64278	0.01323
5280.71410	0.01325
5278.78543	0.01326
5276.85675	0.01327
5274.92807	0.01328
5272.99940	0.01330
5271.07072	0.01333
5269.14205	0.01336
5267.21337	0.01339
5265.28470	0.01339
5263.35602	0.01339
5261.42734	0.01342
5259.49867	0.01348
5257.56999	0.01354
5255.64132	0.01358
5253.71264	0.01358
5251.78397	0.01359
5249.85529	0.01360
5247.92661	0.01362
5245.99794	0.01365
5244.06926	0.01368
5242.14059	0.01371
5240.21191	0.01373
5238.28324	0.01376
5236.35456	0.01380
5234.42588	0.01383
5232.49721	0.01385
5230.56853	0.01387
5228.63986	0.01389
5226.71118	0.01390
5224.78251	0.01392
5222.85383	0.01396
5220.92515	0.01398
5218.99648	0.01400
5217.06780	0.01400
5215.13913	0.01402
5213.21045	0.01406
5211.28178	0.01410
5209.35310	0.01410
5207.42442	0.01412
5205.49575	0.01416
5203.56707	0.01420
5201.63840	0.01423
5199.70972	0.01425
5197.78105	0.01427
5195.85237	0.01430
5193.92369	0.01434
5191.99502	0.01436
5190.06634	0.01436
5188.13767	0.01436
5186.20899	0.01439
5184.28032	0.01443
5182.35164	0.01446
5180.42296	0.01449
5178.49429	0.01450
5176.56561	0.01451
5174.63694	0.01452
5172.70826	0.01456
5170.77959	0.01459
5168.85091	0.01463
5166.92223	0.01466
5164.99356	0.01469
5163.06488	0.01472
5161.13621	0.01475
5159.20753	0.01476
5157.27886	0.01477
5155.35018	0.01478
5153.42150	0.01479
5151.49283	0.01481
5149.56415	0.01484
5147.63548	0.01487
5145.70680	0.01490
5143.77813	0.01493
5141.84945	0.01497
5139.92077	0.01500
5137.99210	0.01503
5136.06342	0.01506
5134.13475	0.01509
5132.20607	0.01511
5130.27740	0.01514
5128.34872	0.01517
5126.42004	0.01519
5124.49137	0.01522
5122.56269	0.01525
5120.63402	0.01526
5118.70534	0.01528
5116.77667	0.01530
5114.84799	0.01533
5112.91931	0.01536
5110.99064	0.01537
5109.06196	0.01538
5107.13329	0.01541
5105.20461	0.01545
5103.27594	0.01548
5101.34726	0.01552
5099.41858	0.01555
5097.48991	0.01555
5095.56123	0.01557
5093.63256	0.01560
5091.70388	0.01564
5089.77521	0.01565
5087.84653	0.01566
5085.91785	0.01567
5083.98918	0.01570
5082.06050	0.01572
5080.13183	0.01575
5078.20315	0.01579
5076.27448	0.01583
5074.34580	0.01586
5072.41712	0.01588
5070.48845	0.01589
5068.55977	0.01592
5066.63110	0.01596
5064.70242	0.01598
5062.77375	0.01600
5060.84507	0.01602
5058.91639	0.01604
5056.98772	0.01608
5055.05904	0.01611
5053.13037	0.01613
5051.20169	0.01615
5049.27302	0.01619
5047.34434	0.01624
5045.41566	0.01627
5043.48699	0.01630
5041.55831	0.01631
5039.62964	0.01632
5037.70096	0.01635
5035.77229	0.01637
5033.84361	0.01639
5031.91493	0.01642
5029.98626	0.01647
5028.05758	0.01651
5026.12891	0.01652
5024.20023	0.01653
5022.27156	0.01656
5020.34288	0.01658
5018.41420	0.01659
5016.48553	0.01661
5014.55685	0.01665
5012.62818	0.01671
5010.69950	0.01676
5008.77083	0.01677
5006.84215	0.01678
5004.91347	0.01681
5002.98480	0.01685
5001.05612	0.01689
4999.12745	0.01690
4997.19877	0.01691
4995.27010	0.01692
4993.34142	0.01695
4991.41274	0.01698
4989.48407	0.01700
4987.55539	0.01703
4985.62672	0.01706
4983.69804	0.01711
4981.76937	0.01716
4979.84069	0.01720
4977.91201	0.01723
4975.98334	0.01725
4974.05466	0.01727
4972.12599	0.01729
4970.19731	0.01733
4968.26864	0.01737
4966.33996	0.01739
4964.41128	0.01740
4962.48261	0.01742
4960.55393	0.01744
4958.62526	0.01748
4956.69658	0.01751
4954.76791	0.01754
4952.83923	0.01757
4950.91055	0.01761
4948.98188	0.01763
4947.05320	0.01765
4945.12453	0.01768
4943.19585	0.01772
4941.26718	0.01775
4939.33850	0.01778
4937.40982	0.01781
4935.48115	0.01785
4933.55247	0.01786
4931.62380	0.01786
4929.69512	0.01787
4927.76645	0.01792
4925.83777	0.01798
4923.90909	0.01801
4921.98042	0.01801
4920.05174	0.01801
4918.12307	0.01803
4916.19439	0.01807
4914.26572	0.01813
4912.33704	0.01819
4910.40836	0.01822
4908.47969	0.01824
4906.55101	0.01826
4904.62234	0.01827
4902.69366	0.01828
4900.76499	0.01831
4898.83631	0.01835
4896.90763	0.01838
4894.97896	0.01839
4893.05028	0.01842
4891.12161	0.01848
4889.19293	0.01851
4887.26426	0.01853
4885.33558	0.01854
4883.40690	0.01858
4881.47823	0.01862
4879.54955	0.01866
4877.62088	0.01868
4875.69220	0.01869
4873.76353	0.01871
4871.83485	0.01874
4869.90617	0.01877
4867.97750	0.01881
4866.04882	0.01884
4864.12015	0.01887
4862.19147	0.01891
4860.26280	0.01896
4858.33412	0.01900
4856.40544	0.01902
4854.47677	0.01904
4852.54809	0.01907
4850.61942	0.01910
4848.69074	0.01912
4846.76207	0.01914
4844.83339	0.01918
4842.90471	0.01921
4840.97604	0.01923
4839.04736	0.01926
4837.11869	0.01930
4835.19001	0.01935
4833.26134	0.01941
4831.33266	0.01944
4829.40398	0.01944
4827.47531	0.01945
4825.54663	0.01947
4823.61796	0.01951
4821.68928	0.01954
4819.76061	0.01957
4817.83193	0.01958
4815.90325	0.01960
4813.97458	0.01963
4812.04590	0.01967
4810.11723	0.01971
4808.18855	0.01975
4806.25988	0.01979
4804.33120	0.01982
4802.40252	0.01984
4800.47385	0.01987
4798.54517	0.01990
4796.61650	0.01994
4794.68782	0.01999
4792.75915	0.02003
4790.83047	0.02006
4788.90179	0.02008
4786.97312	0.02010
4785.04444	0.02012
4783.11577	0.02014
4781.18709	0.02016
4779.25842	0.02020
4777.32974	0.02024
4775.40106	0.02027
4773.47239	0.02031
4771.54371	0.02034
4769.61504	0.02037
4767.68636	0.02042
4765.75769	0.02047
4763.82901	0.02050
4761.90033	0.02052
4759.97166	0.02056
4758.04298	0.02061
4756.11431	0.02065
4754.18563	0.02067
4752.25696	0.02069
4750.32828	0.02071
4748.39960	0.02074
4746.47093	0.02079
4744.54225	0.02084
4742.61358	0.02088
4740.68490	0.02092
4738.75623	0.02094
4736.82755	0.02099
4734.89887	0.02102
4732.97020	0.02104
4731.04152	0.02106
4729.11285	0.02110
4727.18417	0.02113
4725.25550	0.02116
4723.32682	0.02120
4721.39814	0.02124
4719.46947	0.02128
4717.54079	0.02129
4715.61212	0.02131
4713.68344	0.02134
4711.75477	0.02137
4709.82609	0.02141
4707.89741	0.02145
4705.96874	0.02148
4704.04006	0.02152
4702.11139	0.02156
4700.18271	0.02161
4698.25404	0.02165
4696.32536	0.02168
4694.39668	0.02170
4692.46801	0.02173
4690.53933	0.02176
4688.61066	0.02180
4686.68198	0.02182
4684.75331	0.02185
4682.82463	0.02188
4680.89595	0.02192
4678.96728	0.02197
4677.03860	0.02201
4675.10993	0.02204
4673.18125	0.02207
4671.25258	0.02211
4669.32390	0.02215
4667.39522	0.02219
4665.46655	0.02221
4663.53787	0.02224
4661.60920	0.02229
4659.68052	0.02236
4657.75185	0.02240
4655.82317	0.02242
4653.89449	0.02243
4651.96582	0.02244
4650.03714	0.02248
4648.10847	0.02252
4646.17979	0.02257
4644.25112	0.02259
4642.32244	0.02261
4640.39376	0.02266
4638.46509	0.02271
4636.53641	0.02275
4634.60774	0.02279
4632.67906	0.02284
4630.75039	0.02288
4628.82171	0.02291
4626.89303	0.02293
4624.96436	0.02296
4623.03568	0.02301
4621.10701	0.02303
4619.17833	0.02306
4617.24966	0.02312
4615.32098	0.02318
4613.39230	0.02323
4611.46363	0.02325
4609.53495	0.02326
4607.60628	0.02329
4605.67760	0.02334
4603.74893	0.02339
4601.82025	0.02345
4599.89157	0.02351
4597.96290	0.02356
4596.03422	0.02361
4594.10555	0.02366
4592.17687	0.02369
4590.24820	0.02370
4588.31952	0.02371
4586.39084	0.02372
4584.46217	0.02376
4582.53349	0.02381
4580.60482	0.02385
4578.67614	0.02389
4576.74747	0.02394
4574.81879	0.02399
4572.89011	0.02402
4570.96144	0.02406
4569.03276	0.02410
4567.10409	0.02415
4565.17541	0.02419
4563.24674	0.02422
4561.31806	0.02424
4559.38938	0.02427
4557.46071	0.02431
4555.53203	0.02436
4553.60336	0.02438
4551.67468	0.02440
4549.74601	0.02445
4547.81733	0.02451
4545.88865	0.02458
4543.95998	0.02464
4542.03130	0.02469
4540.10263	0.02472
4538.17395	0.02474
4536.24528	0.02478
4534.31660	0.02485
4532.38792	0.02492
4530.45925	0.02495
4528.53057	0.02499
4526.60190	0.02502
4524.67322	0.02504
4522.74455	0.02507
4520.81587	0.02512
4518.88719	0.02517
4516.95852	0.02521
4515.02984	0.02525
4513.10117	0.02528
4511.17249	0.02530
4509.24382	0.02534
4507.31514	0.02539
4505.38646	0.02545
4503.45779	0.02549
4501.52911	0.02553
4499.60044	0.02557
4497.67176	0.02560
4495.74309	0.02564
4493.81441	0.02570
4491.88573	0.02574
4489.95706	0.02578
4488.02838	0.02583
4486.09971	0.02589
4484.17103	0.02593
4482.24236	0.02596
4480.31368	0.02600
4478.38500	0.02605
4476.45633	0.02611
4474.52765	0.02619
4472.59898	0.02623
4470.67030	0.02625
4468.74163	0.02626
4466.81295	0.02630
4464.88427	0.02634
4462.95560	0.02639
4461.02692	0.02645
4459.09825	0.02651
4457.16957	0.02657
4455.24090	0.02662
4453.31222	0.02667
4451.38354	0.02671
4449.45487	0.02674
4447.52619	0.02677
4445.59752	0.02681
4443.66884	0.02686
4441.74017	0.02692
4439.81149	0.02698
4437.88281	0.02703
4435.95414	0.02708
4434.02546	0.02714
4432.09679	0.02718
4430.16811	0.02722
4428.23944	0.02726
4426.31076	0.02732
4424.38208	0.02737
4422.45341	0.02742
4420.52473	0.02746
4418.59606	0.02751
4416.66738	0.02756
4414.73871	0.02762
4412.81003	0.02766
4410.88135	0.02769
4408.95268	0.02771
4407.02400	0.02775
4405.09533	0.02780
4403.16665	0.02786
4401.23798	0.02793
4399.30930	0.02796
4397.38062	0.02798
4395.45195	0.02802
4393.52327	0.02808
4391.59460	0.02814
4389.66592	0.02820
4387.73725	0.02824
4385.80857	0.02827
4383.87989	0.02832
4381.95122	0.02838
4380.02254	0.02842
4378.09387	0.02847
4376.16519	0.02853
4374.23652	0.02860
4372.30784	0.02864
4370.37916	0.02868
4368.45049	0.02873
4366.52181	0.02881
4364.59314	0.02889
4362.66446	0.02893
4360.73579	0.02896
4358.80711	0.02903
4356.87843	0.02910
4354.94976	0.02913
4353.02108	0.02915
4351.09241	0.02919
4349.16373	0.02925
4347.23506	0.02929
4345.30638	0.02932
4343.37770	0.02937
4341.44903	0.02945
4339.52035	0.02953
4337.59168	0.02959
4335.66300	0.02963
4333.73433	0.02969
4331.80565	0.02975
4329.87697	0.02979
4327.94830	0.02984
4326.01962	0.02988
4324.09095	0.02992
4322.16227	0.02996
4320.23360	0.03004
4318.30492	0.03013
4316.37624	0.03019
4314.44757	0.03024
4312.51889	0.03030
4310.59022	0.03038
4308.66154	0.03045
4306.73287	0.03049
4304.80419	0.03052
4302.87551	0.03056
4300.94684	0.03063
4299.01816	0.03070
4297.08949	0.03075
4295.16081	0.03079
4293.23214	0.03085
4291.30346	0.03090
4289.37478	0.03093
4287.44611	0.03100
4285.51743	0.03108
4283.58876	0.03116
4281.66008	0.03121
4279.73141	0.03124
4277.80273	0.03128
4275.87405	0.03133
4273.94538	0.03139
4272.01670	0.03145
4270.08803	0.03150
4268.15935	0.03156
4266.23068	0.03162
4264.30200	0.03169
4262.37332	0.03175
4260.44465	0.03180
4258.51597	0.03185
4256.58730	0.03189
4254.65862	0.03196
4252.72995	0.03203
4250.80127	0.03209
4248.87259	0.03215
4246.94392	0.03221
4245.01524	0.03227
4243.08657	0.03234
4241.15789	0.03241
4239.22922	0.03246
4237.30054	0.03253
4235.37186	0.03260
4233.44319	0.03266
4231.51451	0.03270
4229.58584	0.03274
4227.65716	0.03279
4225.72849	0.03286
4223.79981	0.03293
4221.87113	0.03300
4219.94246	0.03307
4218.01378	0.03311
4216.08511	0.03316
4214.15643	0.03321
4212.22776	0.03327
4210.29908	0.03332
4208.37040	0.03340
4206.44173	0.03349
4204.51305	0.03357
4202.58438	0.03362
4200.65570	0.03367
4198.72703	0.03372
4196.79835	0.03376
4194.86968	0.03382
4192.94100	0.03391
4191.01232	0.03397
4189.08365	0.03402
4187.15497	0.03407
4185.22630	0.03414
4183.29762	0.03424
4181.36895	0.03433
4179.44027	0.03442
4177.51159	0.03450
4175.58292	0.03456
4173.65424	0.03461
4171.72557	0.03465
4169.79689	0.03471
4167.86822	0.03476
4165.93954	0.03481
4164.01086	0.03486
4162.08219	0.03493
4160.15351	0.03502
4158.22484	0.03510
4156.29616	0.03514
4154.36749	0.03518
4152.43881	0.03524
4150.51013	0.03532
4148.58146	0.03540
4146.65278	0.03547
4144.72411	0.03554
4142.79543	0.03560
4140.86676	0.03566
4138.93808	0.03571
4137.00940	0.03580
4135.08073	0.03591
4133.15205	0.03599
4131.22338	0.03604
4129.29470	0.03609
4127.36603	0.03615
4125.43735	0.03622
4123.50867	0.03631
4121.58000	0.03637
4119.65132	0.03644
4117.72265	0.03651
4115.79397	0.03658
4113.86530	0.03664
4111.93662	0.03671
4110.00794	0.03677
4108.07927	0.03682
4106.15059	0.03690
4104.22192	0.03698
4102.29324	0.03703
4100.36457	0.03707
4098.43589	0.03714
4096.50721	0.03722
4094.57854	0.03730
4092.64986	0.03735
4090.72119	0.03741
4088.79251	0.03748
4086.86384	0.03759
4084.93516	0.03770
4083.00648	0.03778
4081.07781	0.03783
4079.14913	0.03788
4077.22046	0.03794
4075.29178	0.03802
4073.36311	0.03811
4071.43443	0.03821
4069.50575	0.03829
4067.57708	0.03836
4065.64840	0.03843
4063.71973	0.03851
4061.79105	0.03858
4059.86238	0.03863
4057.93370	0.03867
4056.00502	0.03874
4054.07635	0.03884
4052.14767	0.03892
4050.21900	0.03898
4048.29032	0.03905
4046.36165	0.03912
4044.43297	0.03919
4042.50429	0.03928
4040.57562	0.03936
4038.64694	0.03941
4036.71827	0.03948
4034.78959	0.03957
4032.86092	0.03966
4030.93224	0.03974
4029.00356	0.03982
4027.07489	0.03988
4025.14621	0.03994
4023.21754	0.04002
4021.28886	0.04011
4019.36019	0.04019
4017.43151	0.04024
4015.50283	0.04031
4013.57416	0.04041
4011.64548	0.04051
4009.71681	0.04058
4007.78813	0.04064
4005.85946	0.04070
4003.93078	0.04077
4002.00210	0.04086
4000.07343	0.04097
3998.14475	0.04108
3996.21608	0.04117
3994.28740	0.04122
3992.35873	0.04125
3990.43005	0.04129
3988.50137	0.04137
3986.57270	0.04146
3984.64402	0.04157
3982.71535	0.04167
3980.78667	0.04174
3978.85800	0.04180
3976.92932	0.04187
3975.00064	0.04195
3973.07197	0.04204
3971.14329	0.04213
3969.21462	0.04222
3967.28594	0.04229
3965.35727	0.04234
3963.42859	0.04242
3961.49991	0.04253
3959.57124	0.04264
3957.64256	0.04273
3955.71389	0.04279
3953.78521	0.04284
3951.85654	0.04289
3949.92786	0.04296
3947.99918	0.04305
3946.07051	0.04315
3944.14183	0.04321
3942.21316	0.04327
3940.28448	0.04339
3938.35581	0.04351
3936.42713	0.04358
3934.49845	0.04362
3932.56978	0.04367
3930.64110	0.04375
3928.71243	0.04383
3926.78375	0.04390
3924.85508	0.04398
3922.92640	0.04407
3920.99772	0.04416
3919.06905	0.04422
3917.14037	0.04427
3915.21170	0.04439
3913.28302	0.04453
3911.35435	0.04464
3909.42567	0.04471
3907.49699	0.04473
3905.56832	0.04471
3903.63964	0.04473
3901.71097	0.04481
3899.78229	0.04494
3897.85362	0.04513
3895.92494	0.04529
3893.99626	0.04533
3892.06759	0.04535
3890.13891	0.04544
3888.21024	0.04551
3886.28156	0.04555
3884.35289	0.04565
3882.42421	0.04576
3880.49553	0.04583
3878.56686	0.04593
3876.63818	0.04606
3874.70951	0.04614
3872.78083	0.04617
3870.85216	0.04620
3868.92348	0.04630
3866.99480	0.04645
3865.06613	0.04655
3863.13745	0.04665
3861.20878	0.04678
3859.28010	0.04688
3857.35143	0.04681
3855.42275	0.04662
3853.49407	0.04660
3851.56540	0.04689
3849.63672	0.04723
3847.70805	0.04743
3845.77937	0.04752
3843.85070	0.04757
3841.92202	0.04760
3839.99334	0.04760
3838.06467	0.04763
3836.13599	0.04774
3834.20732	0.04789
3832.27864	0.04803
3830.34997	0.04818
3828.42129	0.04831
3826.49261	0.04842
3824.56394	0.04846
3822.63526	0.04843
3820.70659	0.04846
3818.77791	0.04859
3816.84924	0.04871
3814.92056	0.04884
3812.99188	0.04903
3811.06321	0.04916
3809.13453	0.04919
3807.20586	0.04922
3805.27718	0.04929
3803.34851	0.04933
3801.41983	0.04938
3799.49115	0.04954
3797.56248	0.04972
3795.63380	0.04986
3793.70513	0.05001
3791.77645	0.05015
3789.84778	0.05025
3787.91910	0.05031
3785.99042	0.05037
3784.06175	0.05047
3782.13307	0.05056
3780.20440	0.05062
3778.27572	0.05072
3776.34705	0.05087
3774.41837	0.05098
3772.48969	0.05100
3770.56102	0.05100
3768.63234	0.05109
3766.70367	0.05122
3764.77499	0.05133
3762.84632	0.05141
3760.91764	0.05146
3758.98896	0.05152
3757.06029	0.05163
3755.13161	0.05170
3753.20294	0.05165
3751.27426	0.05161
3749.34559	0.05171
3747.41691	0.05179
3745.48823	0.05175
3743.55956	0.05188
3741.63088	0.05219
3739.70221	0.05235
3737.77353	0.05232
3735.84486	0.05233
3733.91618	0.05249
3731.98750	0.05271
3730.05883	0.05290
3728.13015	0.05297
3726.20148	0.05302
3724.27280	0.05315
3722.34413	0.05333
3720.41545	0.05349
3718.48677	0.05361
3716.55810	0.05370
3714.62942	0.05372
3712.70075	0.05372
3710.77207	0.05381
3708.84340	0.05400
3706.91472	0.05421
3704.98604	0.05430
3703.05737	0.05431
3701.12869	0.05436
3699.20002	0.05452
3697.27134	0.05467
3695.34267	0.05477
3693.41399	0.05479
3691.48531	0.05474
3689.55664	0.05475
3687.62796	0.05492
3685.69929	0.05517
3683.77061	0.05536
3681.84194	0.05544
3679.91326	0.05545
3677.98458	0.05536
3676.05591	0.05530
3674.12723	0.05541
3672.19856	0.05559
3670.26988	0.05571
3668.34121	0.05588
3666.41253	0.05611
3664.48385	0.05628
3662.55518	0.05638
3660.62650	0.05645
3658.69783	0.05645
3656.76915	0.05644
3654.84048	0.05646
3652.91180	0.05644
3650.98312	0.05631
3649.05445	0.05624
3647.12577	0.05639
3645.19710	0.05671
3643.26842	0.05700
3641.33975	0.05718
3639.41107	0.05730
3637.48239	0.05740
3635.55372	0.05745
3633.62504	0.05746
3631.69637	0.05740
3629.76769	0.05735
3627.83902	0.05749
3625.91034	0.05775
3623.98166	0.05793
3622.05299	0.05796
3620.12431	0.05793
3618.19564	0.05797
3616.26696	0.05807
3614.33829	0.05814
3612.40961	0.05817
3610.48093	0.05820
3608.55226	0.05830
3606.62358	0.05849
3604.69491	0.05866
3602.76623	0.05873
3600.83756	0.05875
3598.90888	0.05880
3596.98020	0.05887
3595.05153	0.05895
3593.12285	0.05903
3591.19418	0.05905
3589.26550	0.05903
3587.33683	0.05910
3585.40815	0.05929
3583.47947	0.05950
3581.55080	0.05963
3579.62212	0.05970
3577.69345	0.05976
3575.76477	0.05982
3573.83610	0.05990
3571.90742	0.05996
3569.97874	0.05995
3568.05007	0.05994
3566.12139	0.06005
3564.19272	0.06023
3562.26404	0.06037
3560.33537	0.06049
3558.40669	0.06058
3556.47801	0.06065
3554.54934	0.06070
3552.62066	0.06075
3550.69199	0.06081
3548.76331	0.06088
3546.83464	0.06092
3544.90596	0.06097
3542.97728	0.06109
3541.04861	0.06121
3539.11993	0.06128
3537.19126	0.06132
3535.26258	0.06139
3533.33391	0.06146
3531.40523	0.06151
3529.47655	0.06156
3527.54788	0.06160
3525.61920	0.06161
3523.69053	0.06160
3521.76185	0.06164
3519.83318	0.06171
3517.90450	0.06176
3515.97582	0.06181
3514.04715	0.06186
3512.11847	0.06190
3510.18980	0.06195
3508.26112	0.06201
3506.33245	0.06204
3504.40377	0.06205
3502.47509	0.06207
3500.54642	0.06210
3498.61774	0.06215
3496.68907	0.06218
3494.76039	0.06220
3492.83172	0.06224
3490.90304	0.06228
3488.97436	0.06232
3487.04569	0.06234
3485.11701	0.06235
3483.18834	0.06236
3481.25966	0.06241
3479.33099	0.06250
3477.40231	0.06258
3475.47363	0.06264
3473.54496	0.06270
3471.61628	0.06279
3469.68761	0.06290
3467.75893	0.06302
3465.83026	0.06314
3463.90158	0.06326
3461.97290	0.06335
3460.04423	0.06342
3458.11555	0.06350
3456.18688	0.06360
3454.25820	0.06370
3452.32953	0.06381
3450.40085	0.06392
3448.47217	0.06402
3446.54350	0.06412
3444.61482	0.06424
3442.68615	0.06434
3440.75747	0.06442
3438.82880	0.06453
3436.90012	0.06471
3434.97144	0.06491
3433.04277	0.06508
3431.11409	0.06528
3429.18542	0.06553
3427.25674	0.06578
3425.32807	0.06599
3423.39939	0.06616
3421.47071	0.06631
3419.54204	0.06646
3417.61336	0.06664
3415.68469	0.06683
3413.75601	0.06700
3411.82734	0.06716
3409.89866	0.06732
3407.96998	0.06747
3406.04131	0.06759
3404.11263	0.06771
3402.18396	0.06781
3400.25528	0.06792
3398.32661	0.06804
3396.39793	0.06819
3394.46925	0.06837
3392.54058	0.06856
3390.61190	0.06873
3388.68323	0.06887
3386.75455	0.06898
3384.82588	0.06909
3382.89720	0.06923
3380.96852	0.06938
3379.03985	0.06952
3377.11117	0.06967
3375.18250	0.06982
3373.25382	0.06992
3371.32515	0.07000
3369.39647	0.07009
3367.46779	0.07020
3365.53912	0.07033
3363.61044	0.07047
3361.68177	0.07059
3359.75309	0.07072
3357.82442	0.07087
3355.89574	0.07100
3353.96706	0.07114
3352.03839	0.07128
3350.10971	0.07142
3348.18104	0.07155
3346.25236	0.07167
3344.32369	0.07180
3342.39501	0.07193
3340.46633	0.07203
3338.53766	0.07211
3336.60898	0.07223
3334.68031	0.07238
3332.75163	0.07253
3330.82296	0.07266
3328.89428	0.07277
3326.96560	0.07288
3325.03693	0.07302
3323.10825	0.07316
3321.17958	0.07327
3319.25090	0.07340
3317.32223	0.07356
3315.39355	0.07371
3313.46487	0.07385
3311.53620	0.07398
3309.60752	0.07411
3307.67885	0.07425
3305.75017	0.07438
3303.82150	0.07452
3301.89282	0.07463
3299.96414	0.07477
3298.03547	0.07492
3296.10679	0.07505
3294.17812	0.07516
3292.24944	0.07529
3290.32077	0.07545
3288.39209	0.07562
3286.46341	0.07576
3284.53474	0.07587
3282.60606	0.07599
3280.67739	0.07615
3278.74871	0.07630
3276.82004	0.07642
3274.89136	0.07655
3272.96268	0.07667
3271.03401	0.07678
3269.10533	0.07690
3267.17666	0.07705
3265.24798	0.07722
3263.31931	0.07738
3261.39063	0.07754
3259.46195	0.07767
3257.53328	0.07778
3255.60460	0.07791
3253.67593	0.07808
3251.74725	0.07825
3249.81858	0.07837
3247.88990	0.07846
3245.96122	0.07858
3244.03255	0.07874
3242.10387	0.07890
3240.17520	0.07906
3238.24652	0.07921
3236.31785	0.07933
3234.38917	0.07946
3232.46049	0.07961
3230.53182	0.07976
3228.60314	0.07989
3226.67447	0.08004
3224.74579	0.08017
3222.81712	0.08030
3220.88844	0.08044
3218.95976	0.08060
3217.03109	0.08074
3215.10241	0.08084
3213.17374	0.08095
3211.24506	0.08108
3209.31639	0.08123
3207.38771	0.08138
3205.45903	0.08153
3203.53036	0.08170
3201.60168	0.08189
3199.67301	0.08204
3197.74433	0.08217
3195.81566	0.08230
3193.88698	0.08244
3191.95830	0.08258
3190.02963	0.08273
3188.10095	0.08287
3186.17228	0.08301
3184.24360	0.08316
3182.31493	0.08332
3180.38625	0.08349
3178.45757	0.08363
3176.52890	0.08376
3174.60022	0.08389
3172.67155	0.08405
3170.74287	0.08423
3168.81420	0.08439
3166.88552	0.08452
3164.95684	0.08465
3163.02817	0.08477
3161.09949	0.08489
3159.17082	0.08503
3157.24214	0.08518
3155.31347	0.08535
3153.38479	0.08551
3151.45611	0.08567
3149.52744	0.08580
3147.59876	0.08593
3145.67009	0.08606
3143.74141	0.08622
3141.81274	0.08639
3139.88406	0.08652
3137.95538	0.08664
3136.02671	0.08676
3134.09803	0.08692
3132.16936	0.08708
3130.24068	0.08723
3128.31201	0.08739
3126.38333	0.08754
3124.45465	0.08766
3122.52598	0.08777
3120.59730	0.08790
3118.66863	0.08806
3116.73995	0.08824
3114.81128	0.08838
3112.88260	0.08849
3110.95392	0.08862
3109.02525	0.08876
3107.09657	0.08890
3105.16790	0.08904
3103.23922	0.08921
3101.31055	0.08939
3099.38187	0.08955
3097.45319	0.08970
3095.52452	0.08984
3093.59584	0.08997
3091.66717	0.09011
3089.73849	0.09026
3087.80982	0.09040
3085.88114	0.09055
3083.95246	0.09072
3082.02379	0.09088
3080.09511	0.09101
3078.16644	0.09115
3076.23776	0.09130
3074.30909	0.09144
3072.38041	0.09158
3070.45173	0.09171
3068.52306	0.09184
3066.59438	0.09200
3064.66571	0.09218
3062.73703	0.09235
3060.80836	0.09250
3058.87968	0.09262
3056.95100	0.09272
3055.02233	0.09283
3053.09365	0.09298
3051.16498	0.09313
3049.23630	0.09328
3047.30763	0.09343
3045.37895	0.09360
3043.45027	0.09374
3041.52160	0.09388
3039.59292	0.09402
3037.66425	0.09415
3035.73557	0.09426
3033.80690	0.09439
3031.87822	0.09454
3029.94954	0.09470
3028.02087	0.09485
3026.09219	0.09500
3024.16352	0.09515
3022.23484	0.09531
3020.30617	0.09545
3018.37749	0.09558
3016.44881	0.09571
3014.52014	0.09584
3012.59146	0.09598
3010.66279	0.09612
3008.73411	0.09627
3006.80544	0.09643
3004.87676	0.09659
3002.94808	0.09674
3001.01941	0.09690
2999.09073	0.09706
2997.16206	0.09719
2995.23338	0.09729
2993.30471	0.09739
2991.37603	0.09754
2989.44735	0.09769
2987.51868	0.09780
2985.59000	0.09789
2983.66133	0.09800
2981.73265	0.09812
2979.80398	0.09823
2977.87530	0.09829
2975.94662	0.09830
2974.01795	0.09828
2972.08927	0.09826
2970.16060	0.09824
2968.23192	0.09822
2966.30325	0.09821
2964.37457	0.09823
2962.44589	0.09830
2960.51722	0.09844
2958.58854	0.09859
2956.65987	0.09875
2954.73119	0.09891
2952.80252	0.09912
2950.87384	0.09932
2948.94516	0.09946
2947.01649	0.09958
2945.08781	0.09970
2943.15914	0.09979
2941.23046	0.09986
2939.30179	0.09989
2937.37311	0.09986
2935.44443	0.09979
2933.51576	0.09972
2931.58708	0.09967
2929.65841	0.09962
2927.72973	0.09957
2925.80106	0.09953
2923.87238	0.09951
2921.94370	0.09953
2920.01503	0.09959
2918.08635	0.09975
2916.15768	0.10005
2914.22900	0.10048
2912.30033	0.10097
2910.37165	0.10143
2908.44297	0.10182
2906.51430	0.10212
2904.58562	0.10237
2902.65695	0.10262
2900.72827	0.10285
2898.79960	0.10307
2896.87092	0.10327
2894.94224	0.10346
2893.01357	0.10368
2891.08489	0.10392
2889.15622	0.10414
2887.22754	0.10433
2885.29887	0.10452
2883.37019	0.10467
2881.44151	0.10480
2879.51284	0.10496
2877.58416	0.10515
2875.65549	0.10529
2873.72681	0.10541
2871.79814	0.10555
2869.86946	0.10569
2867.94078	0.10580
2866.01211	0.10589
2864.08343	0.10595
2862.15476	0.10600
2860.22608	0.10602
2858.29741	0.10603
2856.36873	0.10603
2854.44005	0.10600
2852.51138	0.10594
2850.58270	0.10598
2848.65403	0.10624
2846.72535	0.10671
2844.79668	0.10721
2842.86800	0.10766
2840.93932	0.10806
2839.01065	0.10838
2837.08197	0.10861
2835.15330	0.10881
2833.22462	0.10904
2831.29595	0.10925
2829.36727	0.10942
2827.43859	0.10958
2825.50992	0.10974
2823.58124	0.10991
2821.65257	0.11011
2819.72389	0.11033
2817.79522	0.11053
2815.86654	0.11068
2813.93786	0.11081
2812.00919	0.11096
2810.08051	0.11115
2808.15184	0.11133
2806.22316	0.11148
2804.29449	0.11160
2802.36581	0.11172
2800.43713	0.11187
2798.50846	0.11206
2796.57978	0.11226
2794.65111	0.11242
2792.72243	0.11255
2790.79376	0.11271
2788.86508	0.11290
2786.93640	0.11308
2785.00773	0.11327
2783.07905	0.11347
2781.15038	0.11363
2779.22170	0.11375
2777.29303	0.11387
2775.36435	0.11401
2773.43567	0.11416
2771.50700	0.11429
2769.57832	0.11445
2767.64965	0.11464
2765.72097	0.11483
2763.79230	0.11498
2761.86362	0.11511
2759.93494	0.11525
2758.00627	0.11541
2756.07759	0.11562
2754.14892	0.11583
2752.22024	0.11598
2750.29157	0.11609
2748.36289	0.11619
2746.43421	0.11633
2744.50554	0.11648
2742.57686	0.11663
2740.64819	0.11682
2738.71951	0.11700
2736.79084	0.11715
2734.86216	0.11728
2732.93348	0.11743
2731.00481	0.11758
2729.07613	0.11773
2727.14746	0.11787
2725.21878	0.11801
2723.29011	0.11816
2721.36143	0.11832
2719.43275	0.11847
2717.50408	0.11859
2715.57540	0.11871
2713.64673	0.11885
2711.71805	0.11905
2709.78938	0.11924
2707.86070	0.11938
2705.93202	0.11949
2704.00335	0.11963
2702.07467	0.11979
2700.14600	0.11995
2698.21732	0.12010
2696.28865	0.12026
2694.35997	0.12045
2692.43129	0.12062
2690.50262	0.12077
2688.57394	0.12091
2686.64527	0.12103
2684.71659	0.12114
2682.78792	0.12128
2680.85924	0.12146
2678.93056	0.12164
2677.00189	0.12180
2675.07321	0.12195
2673.14454	0.12212
2671.21586	0.12228
2669.28719	0.12242
2667.35851	0.12256
2665.42983	0.12271
2663.50116	0.12284
2661.57248	0.12296
2659.64381	0.12308
2657.71513	0.12324
2655.78646	0.12343
2653.85778	0.12360
2651.92910	0.12374
2650.00043	0.12388
2648.07175	0.12403
2646.14308	0.12418
2644.21440	0.12431
2642.28573	0.12447
2640.35705	0.12468
2638.42837	0.12485
2636.49970	0.12498
2634.57102	0.12510
2632.64235	0.12526
2630.71367	0.12547
2628.78500	0.12567
2626.85632	0.12582
2624.92764	0.12595
2622.99897	0.12610
2621.07029	0.12627
2619.14162	0.12643
2617.21294	0.12659
2615.28427	0.12676
2613.35559	0.12695
2611.42691	0.12712
2609.49824	0.12726
2607.56956	0.12740
2605.64089	0.12758
2603.71221	0.12779
2601.78354	0.12799
2599.85486	0.12815
2597.92618	0.12831
2595.99751	0.12850
2594.06883	0.12865
2592.14016	0.12877
2590.21148	0.12889
2588.28281	0.12904
2586.35413	0.12919
2584.42545	0.12931
2582.49678	0.12945
2580.56810	0.12960
2578.63943	0.12976
2576.71075	0.12995
2574.78208	0.13013
2572.85340	0.13030
2570.92472	0.13046
2568.99605	0.13063
2567.06737	0.13082
2565.13870	0.13100
2563.21002	0.13112
2561.28135	0.13123
2559.35267	0.13136
2557.42399	0.13153
2555.49532	0.13171
2553.56664	0.13186
2551.63797	0.13200
2549.70929	0.13215
2547.78062	0.13232
2545.85194	0.13246
2543.92326	0.13260
2541.99459	0.13276
2540.06591	0.13291
2538.13724	0.13305
2536.20856	0.13318
2534.27989	0.13334
2532.35121	0.13352
2530.42253	0.13370
2528.49386	0.13389
2526.56518	0.13408
2524.63651	0.13424
2522.70783	0.13438
2520.77916	0.13452
2518.85048	0.13467
2516.92181	0.13483
2514.99313	0.13502
2513.06445	0.13520
2511.13578	0.13534
2509.20710	0.13545
2507.27843	0.13559
2505.34975	0.13575
2503.42108	0.13592
2501.49240	0.13612
2499.56372	0.13632
2497.63505	0.13653
2495.70637	0.13674
2493.77770	0.13694
2491.84902	0.13712
2489.92035	0.13729
2487.99167	0.13747
2486.06299	0.13764
2484.13432	0.13777
2482.20564	0.13787
2480.27697	0.13802
2478.34829	0.13820
2476.41962	0.13839
2474.49094	0.13857
2472.56226	0.13874
2470.63359	0.13892
2468.70491	0.13909
2466.77624	0.13927
2464.84756	0.13942
2462.91889	0.13958
2460.99021	0.13977
2459.06153	0.13997
2457.13286	0.14015
2455.20418	0.14030
2453.27551	0.14045
2451.34683	0.14063
2449.41816	0.14080
2447.48948	0.14096
2445.56080	0.14110
2443.63213	0.14126
2441.70345	0.14142
2439.77478	0.14158
2437.84610	0.14175
2435.91743	0.14196
2433.98875	0.14218
2432.06007	0.14237
2430.13140	0.14253
2428.20272	0.14270
2426.27405	0.14285
2424.34537	0.14300
2422.41670	0.14316
2420.48802	0.14328
2418.55934	0.14340
2416.63067	0.14360
2414.70199	0.14384
2412.77332	0.14400
2410.84464	0.14412
2408.91597	0.14426
2406.98729	0.14441
2405.05861	0.14457
2403.12994	0.14475
2401.20126	0.14491
2399.27259	0.14506
2397.34391	0.14524
2395.41524	0.14541
2393.48656	0.14553
2391.55788	0.14566
2389.62921	0.14581
2387.70053	0.14597
2385.77186	0.14613
2383.84318	0.14631
2381.91451	0.14647
2379.98583	0.14659
2378.05715	0.14666
2376.12848	0.14669
2374.19980	0.14670
2372.27113	0.14673
2370.34245	0.14676
2368.41378	0.14681
2366.48510	0.14692
2364.55642	0.14706
2362.62775	0.14720
2360.69907	0.14736
2358.77040	0.14756
2356.84172	0.14781
2354.91305	0.14809
2352.98437	0.14839
2351.05569	0.14871
2349.12702	0.14895
2347.19834	0.14905
2345.26967	0.14907
2343.34099	0.14911
2341.41232	0.14922
2339.48364	0.14937
2337.55496	0.14954
2335.62629	0.14971
2333.69761	0.14986
2331.76894	0.15002
2329.84026	0.15022
2327.91159	0.15047
2325.98291	0.15070
2324.05423	0.15092
2322.12556	0.15115
2320.19688	0.15138
2318.26821	0.15157
2316.33953	0.15175
2314.41086	0.15196
2312.48218	0.15221
2310.55350	0.15244
2308.62483	0.15261
2306.69615	0.15277
2304.76748	0.15295
2302.83880	0.15314
2300.91013	0.15335
2298.98145	0.15357
2297.05277	0.15375
2295.12410	0.15391
2293.19542	0.15408
2291.26675	0.15426
2289.33807	0.15443
2287.40940	0.15458
2285.48072	0.15474
2283.55204	0.15492
2281.62337	0.15509
2279.69469	0.15524
2277.76602	0.15540
2275.83734	0.15558
2273.90867	0.15577
2271.97999	0.15597
2270.05131	0.15614
2268.12264	0.15627
2266.19396	0.15640
2264.26529	0.15657
2262.33661	0.15678
2260.40794	0.15695
2258.47926	0.15709
2256.55058	0.15727
2254.62191	0.15748
2252.69323	0.15767
2250.76456	0.15784
2248.83588	0.15800
2246.90721	0.15815
2244.97853	0.15828
2243.04985	0.15842
2241.12118	0.15860
2239.19250	0.15879
2237.26383	0.15895
2235.33515	0.15909
2233.40648	0.15924
2231.47780	0.15943
2229.54912	0.15962
2227.62045	0.15979
2225.69177	0.15995
2223.76310	0.16007
2221.83442	0.16019
2219.90575	0.16036
2217.97707	0.16055
2216.04839	0.16074
2214.11972	0.16091
2212.19104	0.16105
2210.26237	0.16119
2208.33369	0.16135
2206.40502	0.16154
2204.47634	0.16174
2202.54766	0.16192
2200.61899	0.16208
2198.69031	0.16221
2196.76164	0.16234
2194.83296	0.16248
2192.90429	0.16262
2190.97561	0.16278
2189.04693	0.16295
2187.11826	0.16312
2185.18958	0.16329
2183.26091	0.16345
2181.33223	0.16361
2179.40356	0.16376
2177.47488	0.16391
2175.54620	0.16407
2173.61753	0.16423
2171.68885	0.16441
2169.76018	0.16460
2167.83150	0.16480
2165.90283	0.16497
2163.97415	0.16511
2162.04547	0.16528
2160.11680	0.16549
2158.18812	0.16571
2156.25945	0.16588
2154.33077	0.16601
2152.40210	0.16613
2150.47342	0.16628
2148.54474	0.16645
2146.61607	0.16664
2144.68739	0.16684
2142.75872	0.16702
2140.83004	0.16719
2138.90137	0.16736
2136.97269	0.16753
2135.04401	0.16768
2133.11534	0.16785
2131.18666	0.16804
2129.25799	0.16822
2127.32931	0.16838
2125.40064	0.16856
2123.47196	0.16873
2121.54328	0.16889
2119.61461	0.16905
2117.68593	0.16919
2115.75726	0.16932
2113.82858	0.16949
2111.89991	0.16968
2109.97123	0.16986
2108.04255	0.17001
2106.11388	0.17013
2104.18520	0.17025
2102.25653	0.17045
2100.32785	0.17069
2098.39918	0.17086
2096.47050	0.17100
2094.54182	0.17117
2092.61315	0.17134
2090.68447	0.17150
2088.75580	0.17169
2086.82712	0.17190
2084.89845	0.17209
2082.96977	0.17225
2081.04109	0.17242
2079.11242	0.17262
2077.18374	0.17280
2075.25507	0.17294
2073.32639	0.17308
2071.39772	0.17326
2069.46904	0.17344
2067.54036	0.17358
2065.61169	0.17368
2063.68301	0.17384
2061.75434	0.17402
2059.82566	0.17419
2057.89699	0.17435
2055.96831	0.17454
2054.03963	0.17477
2052.11096	0.17497
2050.18228	0.17512
2048.25361	0.17525
2046.32493	0.17541
2044.39626	0.17560
2042.46758	0.17575
2040.53890	0.17589
2038.61023	0.17604
2036.68155	0.17620
2034.75288	0.17637
2032.82420	0.17654
2030.89553	0.17676
2028.96685	0.17699
2027.03817	0.17718
2025.10950	0.17731
2023.18082	0.17746
2021.25215	0.17762
2019.32347	0.17776
2017.39480	0.17789
2015.46612	0.17806
2013.53744	0.17823
2011.60877	0.17839
2009.68009	0.17859
2007.75142	0.17880
2005.82274	0.17900
2003.89407	0.17919
2001.96539	0.17938
2000.03671	0.17957
1998.10804	0.17975
1996.17936	0.17988
1994.25069	0.17995
1992.32201	0.18001
1990.39334	0.18016
1988.46466	0.18035
1986.53598	0.18055
1984.60731	0.18074
1982.67863	0.18093
1980.74996	0.18107
1978.82128	0.18117
1976.89261	0.18131
1974.96393	0.18148
1973.03525	0.18164
1971.10658	0.18181
1969.17790	0.18196
1967.24923	0.18205
1965.32055	0.18218
1963.39188	0.18238
1961.46320	0.18258
1959.53452	0.18275
1957.60585	0.18287
1955.67717	0.18299
1953.74850	0.18314
1951.81982	0.18330
1949.89115	0.18345
1947.96247	0.18360
1946.03379	0.18374
1944.10512	0.18382
1942.17644	0.18391
1940.24777	0.18415
1938.31909	0.18443
1936.39042	0.18464
1934.46174	0.18482
1932.53306	0.18497
1930.60439	0.18509
1928.67571	0.18521
1926.74704	0.18536
1924.81836	0.18551
1922.88969	0.18568
1920.96101	0.18585
1919.03233	0.18596
1917.10366	0.18611
1915.17498	0.18636
1913.24631	0.18657
1911.31763	0.18670
1909.38896	0.18685
1907.46028	0.18704
1905.53160	0.18723
1903.60293	0.18738
1901.67425	0.18752
1899.74558	0.18769
1897.81690	0.18785
1895.88823	0.18796
1893.95955	0.18804
1892.03087	0.18815
1890.10220	0.18830
1888.17352	0.18850
1886.24485	0.18869
1884.31617	0.18884
1882.38750	0.18900
1880.45882	0.18919
1878.53014	0.18940
1876.60147	0.18959
1874.67279	0.18976
1872.74412	0.18982
1870.81544	0.18975
1868.88677	0.18975
1866.95809	0.19002
1865.02941	0.19038
1863.10074	0.19064
1861.17206	0.19084
1859.24339	0.19105
1857.31471	0.19126
1855.38604	0.19145
1853.45736	0.19162
1851.52868	0.19181
1849.60001	0.19197
1847.67133	0.19198
1845.74266	0.19185
1843.81398	0.19192
1841.88531	0.19234
1839.95663	0.19275
1838.02795	0.19298
1836.09928	0.19317
1834.17060	0.19331
1832.24193	0.19330
1830.31325	0.19325
1828.38458	0.19339
1826.45590	0.19362
1824.52722	0.19386
1822.59855	0.19414
1820.66987	0.19437
1818.74120	0.19452
1816.81252	0.19470
1814.88385	0.19486
1812.95517	0.19494
1811.02649	0.19502
1809.09782	0.19518
1807.16914	0.19534
1805.24047	0.19543
1803.31179	0.19540
1801.38312	0.19541
1799.45444	0.19560
1797.52576	0.19584
1795.59709	0.19590
1793.66841	0.19581
1791.73974	0.19591
1789.81106	0.19630
1787.88239	0.19661
1785.95371	0.19672
1784.02503	0.19682
1782.09636	0.19693
1780.16768	0.19703
1778.23901	0.19719
1776.31033	0.19728
1774.38166	0.19714
1772.45298	0.19699
1770.52430	0.19710
1768.59563	0.19740
1766.66695	0.19775
1764.73828	0.19795
1762.80960	0.19793
1760.88093	0.19795
1758.95225	0.19807
1757.02357	0.19817
1755.09490	0.19822
1753.16622	0.19805
1751.23755	0.19775
1749.30887	0.19773
1747.38020	0.19796
1745.45152	0.19809
1743.52284	0.19807
1741.59417	0.19802
1739.66549	0.19805
1737.73682	0.19806
1735.80814	0.19782
1733.87947	0.19771
1731.95079	0.19812
1730.02211	0.19868
1728.09344	0.19903
1726.16476	0.19919
1724.23609	0.19929
1722.30741	0.19937
1720.37874	0.19920
1718.45006	0.19889
1716.52138	0.19893
1714.59271	0.19939
1712.66403	0.19993
1710.73536	0.20031
1708.80668	0.20040
1706.87801	0.20031
1704.94933	0.20025
1703.02065	0.20001
1701.09198	0.19963
1699.16330	0.19963
1697.23463	0.19995
1695.30595	0.20032
1693.37728	0.20079
1691.44860	0.20101
1689.51992	0.20094
1687.59125	0.20072
1685.66257	0.20030
1683.73390	0.20015
1681.80522	0.20055
1679.87655	0.20097
1677.94787	0.20100
1676.01919	0.20084
1674.09052	0.20084
1672.16184	0.20091
1670.23317	0.20090
1668.30449	0.20114
1666.37582	0.20151
1664.44714	0.20158
1662.51846	0.20151
1660.58979	0.20165
1658.66111	0.20178
1656.73244	0.20149
1654.80376	0.20076
1652.87509	0.20047
1650.94641	0.20097
1649.01773	0.20137
1647.08906	0.20141
1645.16038	0.20170
1643.23171	0.20215
1641.30303	0.20235
1639.37436	0.20221
1637.44568	0.20188
1635.51700	0.20177
1633.58833	0.20215
1631.65965	0.20255
1629.73098	0.20257
1627.80230	0.20241
1625.87363	0.20221
1623.94495	0.20191
1622.01627	0.20167
1620.08760	0.20164
1618.15892	0.20183
1616.23025	0.20236
1614.30157	0.20311
1612.37290	0.20371
1610.44422	0.20404
1608.51554	0.20430
1606.58687	0.20458
1604.65819	0.20482
1602.72952	0.20501
1600.80084	0.20525
1598.87217	0.20552
1596.94349	0.20570
1595.01481	0.20581
1593.08614	0.20598
1591.15746	0.20617
1589.22879	0.20634
1587.30011	0.20651
1585.37144	0.20667
1583.44276	0.20680
1581.51408	0.20691
1579.58541	0.20691
1577.65673	0.20675
1575.72806	0.20679
1573.79938	0.20714
1571.87071	0.20732
1569.94203	0.20731
1568.01335	0.20748
1566.08468	0.20776
1564.15600	0.20789
1562.22733	0.20759
1560.29865	0.20697
1558.36998	0.20689
1556.44130	0.20757
1554.51262	0.20830
1552.58395	0.20867
1550.65527	0.20883
1548.72660	0.20892
1546.79792	0.20886
1544.86925	0.20855
1542.94057	0.20818
1541.01189	0.20807
1539.08322	0.20846
1537.15454	0.20906
1535.22587	0.20928
1533.29719	0.20933
1531.36852	0.20959
1529.43984	0.20975
1527.51116	0.20963
1525.58249	0.20947
1523.65381	0.20920
1521.72514	0.20896
1519.79646	0.20913
1517.86779	0.20951
1515.93911	0.20985
1514.01043	0.21011
1512.08176	0.21018
1510.15308	0.20991
1508.22441	0.20950
1506.29573	0.20954
1504.36706	0.21021
1502.43838	0.21075
1500.50970	0.21071
1498.58103	0.21046
1496.65235	0.21041
1494.72368	0.21055
1492.79500	0.21051
1490.86633	0.21022
1488.93765	0.21006
1487.00897	0.21020
1485.08030	0.21035
1483.15162	0.21032
1481.22295	0.21017
1479.29427	0.20992
1477.36560	0.20944
1475.43692	0.20884
1473.50824	0.20837
1471.57957	0.20819
1469.65089	0.20818
1467.72222	0.20797
1465.79354	0.20761
1463.86487	0.20746
1461.93619	0.20736
1460.00751	0.20683
1458.07884	0.20605
1456.15016	0.20586
1454.22149	0.20636
1452.29281	0.20681
1450.36414	0.20691
1448.43546	0.20690
1446.50678	0.20700
1444.57811	0.20718
1442.64943	0.20734
1440.72076	0.20739
1438.79208	0.20724
1436.86341	0.20715
1434.93473	0.20745
1433.00605	0.20787
1431.07738	0.20808
1429.14870	0.20824
1427.22003	0.20839
1425.29135	0.20843
1423.36268	0.20835
1421.43400	0.20808
1419.50532	0.20779
1417.57665	0.20789
1415.64797	0.20827
1413.71930	0.20851
1411.79062	0.20861
1409.86195	0.20865
1407.93327	0.20861
1406.00459	0.20855
1404.07592	0.20856
1402.14724	0.20853
1400.21857	0.20836
1398.28989	0.20816
1396.36122	0.20800
1394.43254	0.20798
1392.50386	0.20812
1390.57519	0.20808
1388.64651	0.20770
1386.71784	0.20733
1384.78916	0.20721
1382.86049	0.20728
1380.93181	0.20738
1379.00313	0.20743
1377.07446	0.20733
1375.14578	0.20720
1373.21711	0.20720
1371.28843	0.20731
1369.35976	0.20739
1367.43108	0.20738
1365.50240	0.20726
1363.57373	0.20707
1361.64505	0.20704
1359.71638	0.20719
1357.78770	0.20738
1355.85903	0.20747
1353.93035	0.20750
1352.00167	0.20755
1350.07300	0.20763
1348.14432	0.20771
1346.21565	0.20781
1344.28697	0.20788
1342.35830	0.20780
1340.42962	0.20764
1338.50094	0.20759
1336.57227	0.20762
1334.64359	0.20761
1332.71492	0.20754
1330.78624	0.20745
1328.85757	0.20734
1326.92889	0.20719
1325.00021	0.20700
1323.07154	0.20680
1321.14286	0.20660
1319.21419	0.20638
1317.28551	0.20618
1315.35684	0.20600
1313.42816	0.20581
1311.49948	0.20568
1309.57081	0.20559
1307.64213	0.20541
1305.71346	0.20513
1303.78478	0.20488
1301.85611	0.20466
1299.92743	0.20445
1297.99875	0.20423
1296.07008	0.20399
1294.14140	0.20378
1292.21273	0.20361
1290.28405	0.20346
1288.35538	0.20328
1286.42670	0.20307
1284.49802	0.20286
1282.56935	0.20266
1280.64067	0.20244
1278.71200	0.20214
1276.78332	0.20178
1274.85465	0.20133
1272.92597	0.20072
1270.99729	0.20000
1269.06862	0.19920
1267.13994	0.19836
1265.21127	0.19760
1263.28259	0.19704
1261.35392	0.19676
1259.42524	0.19675
1257.49656	0.19690
1255.56789	0.19706
1253.63921	0.19712
1251.71054	0.19704
1249.78186	0.19684
1247.85319	0.19652
1245.92451	0.19610
1243.99583	0.19566
1242.06716	0.19526
1240.13848	0.19486
1238.20981	0.19437
1236.28113	0.19379
1234.35246	0.19319
1232.42378	0.19260
1230.49510	0.19203
1228.56643	0.19148
1226.63775	0.19095
1224.70908	0.19045
1222.78040	0.19000
1220.85173	0.18950
1218.92305	0.18895
1216.99437	0.18841
1215.06570	0.18789
1213.13702	0.18736
1211.20835	0.18679
1209.27967	0.18620
1207.35100	0.18561
1205.42232	0.18504
1203.49364	0.18448
1201.56497	0.18392
1199.63629	0.18333
1197.70762	0.18272
1195.77894	0.18210
1193.85027	0.18144
1191.92159	0.18072
1189.99291	0.17999
1188.06424	0.17928
1186.13556	0.17852
1184.20689	0.17770
1182.27821	0.17684
1180.34954	0.17595
1178.42086	0.17504
1176.49218	0.17419
1174.56351	0.17340
1172.63483	0.17258
1170.70616	0.17170
1168.77748	0.17083
1166.84881	0.16996
1164.92013	0.16906
1162.99145	0.16815
1161.06278	0.16728
1159.13410	0.16648
1157.20543	0.16569
1155.27675	0.16486
1153.34808	0.16404
1151.41940	0.16326
1149.49072	0.16247
1147.56205	0.16163
1145.63337	0.16081
1143.70470	0.16001
1141.77602	0.15909
1139.84735	0.15799
1137.91867	0.15681
1135.98999	0.15558
1134.06132	0.15419
1132.13264	0.15252
1130.20397	0.15054
1128.27529	0.14834
1126.34662	0.14606
1124.41794	0.14373
1122.48926	0.14137
1120.56059	0.13899
1118.63191	0.13664
1116.70324	0.13443
1114.77456	0.13248
1112.84589	0.13085
1110.91721	0.12950
1108.98853	0.12839
1107.05986	0.12754
1105.13118	0.12707
1103.20251	0.12700
1101.27383	0.12723
1099.34516	0.12768
1097.41648	0.12834
1095.48780	0.12918
1093.55913	0.13007
1091.63045	0.13089
1089.70178	0.13162
1087.77310	0.13233
1085.84443	0.13302
1083.91575	0.13361
1081.98707	0.13403
1080.05840	0.13429
1078.12972	0.13451
1076.20105	0.13470
1074.27237	0.13481
1072.34370	0.13486
1070.41502	0.13490
1068.48634	0.13497
1066.55767	0.13515
1064.62899	0.13541
1062.70032	0.13568
1060.77164	0.13593
1058.84297	0.13621
1056.91429	0.13651
1054.98561	0.13678
1053.05694	0.13704
1051.12826	0.13735
1049.19959	0.13773
1047.27091	0.13811
1045.34224	0.13846
1043.41356	0.13879
1041.48488	0.13917
1039.55621	0.13957
1037.62753	0.13996
1035.69886	0.14039
1033.77018	0.14082
1031.84151	0.14118
1029.91283	0.14149
1027.98415	0.14182
1026.05548	0.14216
1024.12680	0.14252
1022.19813	0.14288
1020.26945	0.14325
1018.34078	0.14367
1016.41210	0.14419
1014.48342	0.14474
1012.55475	0.14526
1010.62607	0.14579
1008.69740	0.14643
1006.76872	0.14707
1004.84005	0.14755
1002.91137	0.14788
1000.98269	0.14818
999.05402	0.14852
997.12534	0.14888
995.19667	0.14915
993.26799	0.14928
991.33932	0.14933
989.41064	0.14931
987.48196	0.14928
985.55329	0.14932
983.62461	0.14938
981.69594	0.14939
979.76726	0.14929
977.83859	0.14906
975.90991	0.14876
973.98123	0.14855
972.05256	0.14844
970.12388	0.14835
968.19521	0.14820
966.26653	0.14801
964.33786	0.14782
962.40918	0.14767
960.48050	0.14754
958.55183	0.14740
956.62315	0.14726
954.69448	0.14711
952.76580	0.14690
950.83713	0.14664
948.90845	0.14639
946.97977	0.14622
945.05110	0.14609
943.12242	0.14588
941.19375	0.14554
939.26507	0.14508
937.33640	0.14458
935.40772	0.14412
933.47904	0.14368
931.55037	0.14317
929.62169	0.14261
927.69302	0.14208
925.76434	0.14155
923.83567	0.14095
921.90699	0.14030
919.97831	0.13968
918.04964	0.13906
916.12096	0.13837
914.19229	0.13764
912.26361	0.13686
910.33494	0.13604
908.40626	0.13527
906.47758	0.13460
904.54891	0.13395
902.62023	0.13334
900.69156	0.13285
898.76288	0.13241
896.83421	0.13195
894.90553	0.13146
892.97685	0.13092
891.04818	0.13033
889.11950	0.12974
887.19083	0.12925
885.26215	0.12887
883.33348	0.12852
881.40480	0.12818
879.47612	0.12790
877.54745	0.12764
875.61877	0.12738
873.69010	0.12717
871.76142	0.12699
869.83275	0.12681
867.90407	0.12658
865.97539	0.12628
864.04672	0.12600
862.11804	0.12583
860.18937	0.12575
858.26069	0.12571
856.33202	0.12561
854.40334	0.12540
852.47466	0.12517
850.54599	0.12489
848.61731	0.12449
846.68864	0.12408
844.75996	0.12384
842.83129	0.12367
840.90261	0.12341
838.97394	0.12307
837.04526	0.12260
835.11658	0.12196
833.18791	0.12117
831.25923	0.12025
829.33056	0.11920
827.40188	0.11811
825.47321	0.11709
823.54453	0.11619
821.61585	0.11538
819.68718	0.11467
817.75850	0.11407
815.82983	0.11358
813.90115	0.11322
811.97248	0.11293
810.04380	0.11261
808.11512	0.11235
806.18645	0.11226
804.25777	0.11229
802.32910	0.11225
800.40042	0.11205
798.47175	0.11162
796.54307	0.11100
794.61439	0.11038
792.68572	0.10991
790.75704	0.10955
788.82837	0.10930
786.89969	0.10911
784.97102	0.10887
783.04234	0.10857
781.11366	0.10827
779.18499	0.10796
777.25631	0.10764
775.32764	0.10737
773.39896	0.10712
771.47029	0.10679
769.54161	0.10637
767.61293	0.10597
765.68426	0.10559
763.75558	0.10513
761.82691	0.10457
759.89823	0.10400
757.96956	0.10346
756.04088	0.10289
754.11220	0.10224
752.18353	0.10160
750.25485	0.10097
748.32618	0.10024
746.39750	0.09942
744.46883	0.09853
742.54015	0.09759
740.61147	0.09671
738.68280	0.09610
736.75412	0.09587
734.82545	0.09595
732.89677	0.09607
730.96810	0.09607
729.03942	0.09597
727.11074	0.09599
725.18207	0.09622
723.25339	0.09649
721.32472	0.09664
719.39604	0.09672
717.46737	0.09687
715.53869	0.09717
713.61001	0.09761
711.68134	0.09811
709.75266	0.09847
707.82399	0.09858
705.89531	0.09853
703.96664	0.09836
702.03796	0.09805
700.10928	0.09764
698.18061	0.09716
696.25193	0.09661
694.32326	0.09596
692.39458	0.09527
690.46591	0.09466
688.53723	0.09415
686.60855	0.09365
684.67988	0.09312
682.75120	0.09258
680.82253	0.09206
678.89385	0.09155
676.96518	0.09096
675.03650	0.09029
673.10782	0.08959
671.17915	0.08885
669.25047	0.08791
667.32180	0.08699
665.39312	0.08634
663.46445	0.08570
661.53577	0.08484
659.60709	0.08386
657.67842	0.08294
655.74974	0.08208
653.82107	0.08122
651.89239	0.08039
649.96372	0.07962
648.03504	0.07881
646.10636	0.07785
644.17769	0.07685
642.24901	0.07589
640.32034	0.07492
638.39166	0.07387
636.46299	0.07281
634.53431	0.07164
632.60563	0.07010
630.67696	0.06777
628.74828	0.06420
626.81961	0.05965
624.89093	0.05508
622.96226	0.05142
621.03358	0.04916
619.10490	0.04795
617.17623	0.04706
615.24755	0.04609
613.31888	0.04494
611.39020	0.04383
609.46153	0.04331
607.53285	0.04349
605.60417	0.04392
603.67550	0.04439
601.74682	0.04514
599.81815	0.04617
597.88947	0.04710
595.96080	0.04777
594.03212	0.04829
592.10344	0.04865
590.17477	0.04879
588.24609	0.04870
586.31742	0.04845
584.38874	0.04818
582.46007	0.04786
580.53139	0.04744
578.60271	0.04696
576.67404	0.04650
574.74536	0.04604
572.81669	0.04559
570.88801	0.04504
568.95934	0.04429
567.03066	0.04361
565.10198	0.04318
563.17331	0.04295
561.24463	0.04277
559.31596	0.04253
557.38728	0.04218
555.45861	0.04186
553.52993	0.04166
551.60125	0.04155
549.67258	0.04142
547.74390	0.04128
545.81523	0.04108
543.88655	0.04074
541.95788	0.04043
540.02920	0.04028
538.10052	0.04019
536.17185	0.04006
534.24317	0.03989
532.31450	0.03969
530.38582	0.03945
528.45715	0.03915
526.52847	0.03886
524.59979	0.03862
522.67112	0.03827
520.74244	0.03771
518.81377	0.03709
516.88509	0.03651
514.95642	0.03597
513.02774	0.03559
511.09906	0.03534
509.17039	0.03513
507.24171	0.03496
505.31304	0.03474
503.38436	0.03430
501.45569	0.03375
499.52701	0.03326
497.59833	0.03276
495.66966	0.03218
493.74098	0.03154
491.81231	0.03094
489.88363	0.03043
487.95496	0.02995
486.02628	0.02935
484.09760	0.02872
482.16893	0.02816
480.24025	0.02768
478.31158	0.02713
476.38290	0.02643
474.45423	0.02574
472.52555	0.02527
470.59687	0.02488
468.66820	0.02445
466.73952	0.02411
464.81085	0.02387
462.88217	0.02364
460.95350	0.02345
459.02482	0.02335
457.09614	0.02326
455.16747	0.02312
453.23879	0.02306
451.31012	0.02316
449.38144	0.02320
447.45277	0.02305
445.52409	0.02284
443.59541	0.02264
441.66674	0.02234
439.73806	0.02196
437.80939	0.02150
435.88071	0.02095
433.95204	0.02038
432.02336	0.01990
430.09468	0.01946
428.16601	0.01896
426.23733	0.01833
424.30866	0.01759
422.37998	0.01681
420.45131	0.01600
418.52263	0.01525
416.59395	0.01464
414.66528	0.01408
412.73660	0.01346
410.80793	0.01285
408.87925	0.01220
406.95058	0.01152
405.02190	0.01088
403.09322	0.01028
401.16455	0.00968
399.23587	0.00915
397.30720	0.00869
395.37852	0.00821
393.44985	0.00766
391.52117	0.00715
389.59249	0.00670
387.66382	0.00620
385.73514	0.00570
383.80647	0.00534
381.87779	0.00507
379.94912	0.00474
378.02044	0.00429
376.09176	0.00376
374.16309	0.00339
372.23441	0.00322
370.30574	0.00294
368.37706	0.00252
