7496.76250	0.00120
7494.83382	0.00119
7492.90514	0.00120
7490.97647	0.00121
7489.04779	0.00122
7487.11912	0.00123
7485.19044	0.00124
7483.26177	0.00125
7481.33309	0.00126
7479.40441	0.00126
7477.47574	0.00125
7475.54706	0.00124
7473.61839	0.00125
7471.68971	0.00126
7469.76104	0.00127
7467.83236	0.00127
7465.90368	0.00127
7463.97501	0.00127
7462.04633	0.00126
7460.11766	0.00126
7458.18898	0.00126
7456.26031	0.00126
7454.33163	0.00127
7452.40295	0.00128
7450.47428	0.00129
7448.54560	0.00128
7446.61693	0.00127
7444.68825	0.00127
7442.75958	0.00128
7440.83090	0.00130
7438.90222	0.00131
7436.97355	0.00132
7435.04487	0.00132
7433.11620	0.00131
7431.18752	0.00132
7429.25885	0.00132
7427.33017	0.00131
7425.40149	0.00131
7423.47282	0.00132
7421.54414	0.00133
7419.61547	0.00135
7417.68679	0.00135
7415.75812	0.00135
7413.82944	0.00134
7411.90076	0.00135
7409.97209	0.00136
7408.04341	0.00136
7406.11474	0.00137
7404.18606	0.00137
7402.25739	0.00138
7400.32871	0.00138
7398.40003	0.00138
7396.47136	0.00138
7394.54268	0.00139
7392.61401	0.00141
7390.68533	0.00141
7388.75666	0.00141
7386.82798	0.00141
7384.89930	0.00141
7382.97063	0.00142
7381.04195	0.00142
7379.11328	0.00143
7377.18460	0.00143
7375.25593	0.00143
7373.32725	0.00142
7371.39857	0.00141
7369.46990	0.00141
7367.54122	0.00141
7365.61255	0.00142
7363.68387	0.00143
7361.75520	0.00145
7359.82652	0.00144
7357.89784	0.00144
7355.96917	0.00145
7354.04049	0.00146
7352.11182	0.00146
7350.18314	0.00146
7348.25447	0.00146
7346.32579	0.00147
7344.39711	0.00147
7342.46844	0.00147
7340.53976	0.00147
7338.61109	0.00147
7336.68241	0.00147
7334.75374	0.00149
7332.82506	0.00150
7330.89638	0.00150
7328.96771	0.00150
7327.03903	0.00151
7325.11036	0.00152
7323.18168	0.00153
7321.25301	0.00153
7319.32433	0.00153
7317.39565	0.00154
7315.46698	0.00155
7313.53830	0.00156
7311.60963	0.00155
7309.68095	0.00154
7307.75228	0.00153
7305.82360	0.00153
7303.89492	0.00154
7301.96625	0.00155
7300.03757	0.00156
7298.10890	0.00157
7296.18022	0.00158
7294.25155	0.00158
7292.32287	0.00158
7290.39419	0.00158
7288.46552	0.00158
7286.53684	0.00158
7284.60817	0.00159
7282.67949	0.00159
7280.75082	0.00160
7278.82214	0.00160
7276.89346	0.00161
7274.96479	0.00161
7273.03611	0.00162
7271.10744	0.00161
7269.17876	0.00160
7267.25009	0.00161
7265.32141	0.00163
7263.39273	0.00164
7261.46406	0.00163
7259.53538	0.00162
7257.60671	0.00161
7255.67803	0.00161
7253.74936	0.00162
7251.82068	0.00163
7249.89200	0.00165
7247.96333	0.00165
7246.03465	0.00166
7244.10598	0.00167
7242.17730	0.00166
7240.24863	0.00165
7238.31995	0.00165
7236.39127	0.00167
7234.46260	0.00169
7232.53392	0.00172
7230.60525	0.00173
7228.67657	0.00172
7226.74790	0.00169
7224.81922	0.00168
7222.89054	0.00169
7220.96187	0.00171
7219.03319	0.00171
7217.10452	0.00171
7215.17584	0.00171
7213.24717	0.00171
7211.31849	0.00172
7209.38981	0.00174
7207.46114	0.00174
7205.53246	0.00175
7203.60379	0.00176
7201.67511	0.00176
7199.74644	0.00176
7197.81776	0.00176
7195.88908	0.00175
7193.96041	0.00175
7192.03173	0.00177
7190.10306	0.00177
7188.17438	0.00177
7186.24571	0.00177
7184.31703	0.00178
7182.38835	0.00178
7180.45968	0.00179
7178.53100	0.00180
7176.60233	0.00179
7174.67365	0.00178
7172.74498	0.00179
7170.81630	0.00180
7168.88762	0.00182
7166.95895	0.00182
7165.03027	0.00182
7163.10160	0.00182
7161.17292	0.00183
7159.24425	0.00184
7157.31557	0.00185
7155.38689	0.00186
7153.45822	0.00186
7151.52954	0.00186
7149.60087	0.00185
7147.67219	0.00185
7145.74352	0.00186
7143.81484	0.00187
7141.88616	0.00187
7139.95749	0.00187
7138.02881	0.00188
7136.10014	0.00190
7134.17146	0.00190
7132.24279	0.00189
7130.31411	0.00189
7128.38543	0.00191
7126.45676	0.00193
7124.52808	0.00193
7122.59941	0.00192
7120.67073	0.00191
7118.74206	0.00193
7116.81338	0.00194
7114.88470	0.00194
7112.95603	0.00193
7111.02735	0.00193
7109.09868	0.00194
7107.17000	0.00194
7105.24133	0.00196
7103.31265	0.00198
7101.38397	0.00198
7099.45530	0.00197
7097.52662	0.00196
7095.59795	0.00196
7093.66927	0.00197
7091.74060	0.00197
7089.81192	0.00198
7087.88324	0.00198
7085.95457	0.00199
7084.02589	0.00200
7082.09722	0.00200
7080.16854	0.00200
7078.23987	0.00199
7076.31119	0.00200
7074.38251	0.00201
7072.45384	0.00201
7070.52516	0.00201
7068.59649	0.00202
7066.66781	0.00203
7064.73914	0.00203
7062.81046	0.00204
7060.88178	0.00206
7058.95311	0.00207
7057.02443	0.00207
7055.09576	0.00206
7053.16708	0.00207
7051.23841	0.00208
7049.30973	0.00208
7047.38105	0.00208
7045.45238	0.00208
7043.52370	0.00208
7041.59503	0.00208
7039.66635	0.00210
7037.73768	0.00211
7035.80900	0.00212
7033.88032	0.00212
7031.95165	0.00211
7030.02297	0.00210
7028.09430	0.00212
7026.16562	0.00213
7024.23695	0.00214
7022.30827	0.00214
7020.37959	0.00214
7018.45092	0.00214
7016.52224	0.00215
7014.59357	0.00217
7012.66489	0.00218
7010.73622	0.00217
7008.80754	0.00218
7006.87886	0.00219
7004.95019	0.00219
7003.02151	0.00219
7001.09284	0.00220
6999.16416	0.00221
6997.23549	0.00221
6995.30681	0.00222
6993.37813	0.00223
6991.44946	0.00221
6989.52078	0.00222
6987.59211	0.00224
6985.66343	0.00225
6983.73476	0.00225
6981.80608	0.00225
6979.87740	0.00225
6977.94873	0.00226
6976.02005	0.00226
6974.09138	0.00227
6972.16270	0.00228
6970.23403	0.00228
6968.30535	0.00227
6966.37667	0.00226
6964.44800	0.00225
6962.51932	0.00226
6960.59065	0.00226
6958.66197	0.00227
6956.73330	0.00229
6954.80462	0.00230
6952.87594	0.00231
6950.94727	0.00232
6949.01859	0.00232
6947.08992	0.00233
6945.16124	0.00233
6943.23257	0.00234
6941.30389	0.00234
6939.37521	0.00235
6937.44654	0.00235
6935.51786	0.00235
6933.58919	0.00235
6931.66051	0.00235
6929.73184	0.00236
6927.80316	0.00237
6925.87448	0.00238
6923.94581	0.00237
6922.01713	0.00237
6920.08846	0.00238
6918.15978	0.00239
6916.23111	0.00241
6914.30243	0.00242
6912.37375	0.00243
6910.44508	0.00243
6908.51640	0.00243
6906.58773	0.00242
6904.65905	0.00241
6902.73038	0.00240
6900.80170	0.00241
6898.87302	0.00242
6896.94435	0.00243
6895.01567	0.00244
6893.08700	0.00245
6891.15832	0.00247
6889.22965	0.00249
6887.30097	0.00249
6885.37229	0.00249
6883.44362	0.00248
6881.51494	0.00248
6879.58627	0.00249
6877.65759	0.00251
6875.72892	0.00252
6873.80024	0.00252
6871.87156	0.00253
6869.94289	0.00253
6868.01421	0.00253
6866.08554	0.00253
6864.15686	0.00253
6862.22819	0.00254
6860.29951	0.00255
6858.37083	0.00255
6856.44216	0.00256
6854.51348	0.00256
6852.58481	0.00257
6850.65613	0.00258
6848.72746	0.00260
6846.79878	0.00261
6844.87010	0.00261
6842.94143	0.00260
6841.01275	0.00260
6839.08408	0.00260
6837.15540	0.00261
6835.22673	0.00262
6833.29805	0.00263
6831.36937	0.00262
6829.44070	0.00263
6827.51202	0.00266
6825.58335	0.00268
6823.65467	0.00268
6821.72600	0.00267
6819.79732	0.00266
6817.86864	0.00266
6815.93997	0.00267
6814.01129	0.00269
6812.08262	0.00269
6810.15394	0.00269
6808.22527	0.00269
6806.29659	0.00270
6804.36791	0.00271
6802.43924	0.00271
6800.51056	0.00270
6798.58189	0.00270
6796.65321	0.00271
6794.72454	0.00273
6792.79586	0.00276
6790.86718	0.00277
6788.93851	0.00278
6787.00983	0.00278
6785.08116	0.00278
6783.15248	0.00279
6781.22381	0.00280
6779.29513	0.00280
6777.36645	0.00279
6775.43778	0.00277
6773.50910	0.00277
6771.58043	0.00278
6769.65175	0.00280
6767.72308	0.00281
6765.79440	0.00282
6763.86572	0.00282
6761.93705	0.00281
6760.00837	0.00282
6758.07970	0.00283
6756.15102	0.00283
6754.22235	0.00284
6752.29367	0.00285
6750.36499	0.00286
6748.43632	0.00287
6746.50764	0.00289
6744.57897	0.00292
6742.65029	0.00293
6740.72162	0.00291
6738.79294	0.00289
6736.86426	0.00289
6734.93559	0.00291
6733.00691	0.00292
6731.07824	0.00293
6729.14956	0.00295
6727.22089	0.00297
6725.29221	0.00297
6723.36353	0.00296
6721.43486	0.00296
6719.50618	0.00297
6717.57751	0.00299
6715.64883	0.00300
6713.72016	0.00300
6711.79148	0.00301
6709.86280	0.00301
6707.93413	0.00301
6706.00545	0.00300
6704.07678	0.00301
6702.14810	0.00302
6700.21943	0.00304
6698.29075	0.00304
6696.36207	0.00304
6694.43340	0.00305
6692.50472	0.00305
6690.57605	0.00306
6688.64737	0.00307
6686.71870	0.00307
6684.79002	0.00307
6682.86134	0.00309
6680.93267	0.00311
6679.00399	0.00311
6677.07532	0.00310
6675.14664	0.00312
6673.21797	0.00315
6671.28929	0.00316
6669.36061	0.00315
6667.43194	0.00315
6665.50326	0.00317
6663.57459	0.00318
6661.64591	0.00318
6659.71724	0.00318
6657.78856	0.00318
6655.85988	0.00318
6653.93121	0.00319
6652.00253	0.00320
6650.07386	0.00321
6648.14518	0.00321
6646.21651	0.00322
6644.28783	0.00323
6642.35915	0.00324
6640.43048	0.00323
6638.50180	0.00323
6636.57313	0.00324
6634.64445	0.00325
6632.71578	0.00326
6630.78710	0.00326
6628.85842	0.00326
6626.92975	0.00326
6625.00107	0.00326
6623.07240	0.00327
6621.14372	0.00328
6619.21505	0.00329
6617.28637	0.00330
6615.35769	0.00331
6613.42902	0.00332
6611.50034	0.00334
6609.57167	0.00335
6607.64299	0.00334
6605.71432	0.00334
6603.78564	0.00335
6601.85696	0.00336
6599.92829	0.00336
6597.99961	0.00338
6596.07094	0.00340
6594.14226	0.00341
6592.21359	0.00342
6590.28491	0.00343
6588.35623	0.00342
6586.42756	0.00342
6584.49888	0.00344
6582.57021	0.00346
6580.64153	0.00347
6578.71286	0.00348
6576.78418	0.00348
6574.85550	0.00348
6572.92683	0.00348
6570.99815	0.00348
6569.06948	0.00349
6567.14080	0.00349
6565.21213	0.00348
6563.28345	0.00347
6561.35477	0.00349
6559.42610	0.00351
6557.49742	0.00352
6555.56875	0.00352
6553.64007	0.00353
6551.71140	0.00355
6549.78272	0.00356
6547.85404	0.00356
6545.92537	0.00356
6543.99669	0.00358
6542.06802	0.00359
6540.13934	0.00362
6538.21067	0.00364
6536.28199	0.00364
6534.35331	0.00362
6532.42464	0.00360
6530.49596	0.00360
6528.56729	0.00363
6526.63861	0.00366
6524.70994	0.00368
6522.78126	0.00369
6520.85258	0.00368
6518.92391	0.00367
6516.99523	0.00367
6515.06656	0.00368
6513.13788	0.00369
6511.20921	0.00370
6509.28053	0.00369
6507.35185	0.00370
6505.42318	0.00371
6503.49450	0.00372
6501.56583	0.00373
6499.63715	0.00375
6497.70848	0.00376
6495.77980	0.00377
6493.85112	0.00377
6491.92245	0.00377
6489.99377	0.00378
6488.06510	0.00379
6486.13642	0.00380
6484.20775	0.00380
6482.27907	0.00380
6480.35039	0.00380
6478.42172	0.00381
6476.49304	0.00382
6474.56437	0.00382
6472.63569	0.00383
6470.70702	0.00385
6468.77834	0.00388
6466.84966	0.00390
6464.92099	0.00392
6462.99231	0.00393
6461.06364	0.00395
6459.13496	0.00397
6457.20629	0.00396
6455.27761	0.00396
6453.34893	0.00397
6451.42026	0.00396
6449.49158	0.00395
6447.56291	0.00395
6445.63423	0.00395
6443.70556	0.00395
6441.77688	0.00397
6439.84820	0.00398
6437.91953	0.00399
6435.99085	0.00401
6434.06218	0.00403
6432.13350	0.00404
6430.20483	0.00404
6428.27615	0.00405
6426.34747	0.00407
6424.41880	0.00409
6422.49012	0.00410
6420.56145	0.00411
6418.63277	0.00411
6416.70410	0.00410
6414.77542	0.00410
6412.84674	0.00411
6410.91807	0.00413
6408.98939	0.00414
6407.06072	0.00415
6405.13204	0.00416
6403.20337	0.00416
6401.27469	0.00417
6399.34601	0.00417
6397.41734	0.00417
6395.48866	0.00419
6393.55999	0.00421
6391.63131	0.00421
6389.70264	0.00421
6387.77396	0.00423
6385.84528	0.00424
6383.91661	0.00425
6381.98793	0.00424
6380.05926	0.00423
6378.13058	0.00423
6376.20191	0.00425
6374.27323	0.00427
6372.34455	0.00430
6370.41588	0.00431
6368.48720	0.00432
6366.55853	0.00434
6364.62985	0.00437
6362.70118	0.00437
6360.77250	0.00436
6358.84382	0.00437
6356.91515	0.00440
6354.98647	0.00441
6353.05780	0.00440
6351.12912	0.00440
6349.20045	0.00442
6347.27177	0.00444
6345.34309	0.00445
6343.41442	0.00446
6341.48574	0.00447
6339.55707	0.00448
6337.62839	0.00448
6335.69972	0.00448
6333.77104	0.00448
6331.84236	0.00449
6329.91369	0.00449
6327.98501	0.00451
6326.05634	0.00453
6324.12766	0.00454
6322.19899	0.00454
6320.27031	0.00454
6318.34163	0.00454
6316.41296	0.00454
6314.48428	0.00457
6312.55561	0.00460
6310.62693	0.00460
6308.69826	0.00459
6306.76958	0.00460
6304.84090	0.00463
6302.91223	0.00464
6300.98355	0.00464
6299.05488	0.00465
6297.12620	0.00465
6295.19753	0.00467
6293.26885	0.00469
6291.34017	0.00471
6289.41150	0.00471
6287.48282	0.00473
6285.55415	0.00475
6283.62547	0.00477
6281.69680	0.00477
6279.76812	0.00476
6277.83944	0.00477
6275.91077	0.00479
6273.98209	0.00480
6272.05342	0.00481
6270.12474	0.00482
6268.19607	0.00482
6266.26739	0.00483
6264.33871	0.00484
6262.41004	0.00484
6260.48136	0.00484
6258.55269	0.00486
6256.62401	0.00488
6254.69534	0.00488
6252.76666	0.00489
6250.83798	0.00491
6248.90931	0.00493
6246.98063	0.00496
6245.05196	0.00498
6243.12328	0.00498
6241.19461	0.00497
6239.26593	0.00496
6237.33725	0.00497
6235.40858	0.00498
6233.47990	0.00499
6231.55123	0.00501
6229.62255	0.00503
6227.69388	0.00503
6225.76520	0.00505
6223.83652	0.00506
6221.90785	0.00507
6219.97917	0.00507
6218.05050	0.00508
6216.12182	0.00508
6214.19315	0.00508
6212.26447	0.00508
6210.33579	0.00509
6208.40712	0.00511
6206.47844	0.00513
6204.54977	0.00515
6202.62109	0.00515
6200.69242	0.00514
6198.76374	0.00516
6196.83506	0.00519
6194.90639	0.00521
6192.97771	0.00522
6191.04904	0.00523
6189.12036	0.00523
6187.19169	0.00525
6185.26301	0.00526
6183.33433	0.00526
6181.40566	0.00526
6179.47698	0.00527
6177.54831	0.00528
6175.61963	0.00532
6173.69096	0.00534
6171.76228	0.00534
6169.83360	0.00535
6167.90493	0.00537
6165.97625	0.00538
6164.04758	0.00538
6162.11890	0.00537
6160.19023	0.00538
6158.26155	0.00539
6156.33287	0.00541
6154.40420	0.00543
6152.47552	0.00544
6150.54685	0.00543
6148.61817	0.00544
6146.68950	0.00547
6144.76082	0.00551
6142.83214	0.00552
6140.90347	0.00553
6138.97479	0.00553
6137.04612	0.00555
6135.11744	0.00557
6133.18877	0.00557
6131.26009	0.00555
6129.33141	0.00555
6127.40274	0.00555
6125.47406	0.00557
6123.54539	0.00559
6121.61671	0.00561
6119.68804	0.00563
6117.75936	0.00564
6115.83068	0.00565
6113.90201	0.00567
6111.97333	0.00569
6110.04466	0.00571
6108.11598	0.00573
6106.18731	0.00574
6104.25863	0.00575
6102.32995	0.00575
6100.40128	0.00576
6098.47260	0.00578
6096.54393	0.00580
6094.61525	0.00581
6092.68658	0.00581
6090.75790	0.00583
6088.82922	0.00585
6086.90055	0.00586
6084.97187	0.00585
6083.04320	0.00586
6081.11452	0.00589
6079.18585	0.00590
6077.25717	0.00590
6075.32849	0.00591
6073.39982	0.00592
6071.47114	0.00595
6069.54247	0.00597
6067.61379	0.00597
6065.68512	0.00597
6063.75644	0.00598
6061.82776	0.00600
6059.89909	0.00603
6057.97041	0.00605
6056.04174	0.00606
6054.11306	0.00607
6052.18439	0.00607
6050.25571	0.00609
6048.32703	0.00609
6046.39836	0.00610
6044.46968	0.00612
6042.54101	0.00614
6040.61233	0.00616
6038.68366	0.00617
6036.75498	0.00617
6034.82630	0.00617
6032.89763	0.00618
6030.96895	0.00620
6029.04028	0.00621
6027.11160	0.00621
6025.18293	0.00623
6023.25425	0.00625
6021.32557	0.00628
6019.39690	0.00628
6017.46822	0.00629
6015.53955	0.00631
6013.61087	0.00634
6011.68220	0.00634
6009.75352	0.00634
6007.82484	0.00635
6005.89617	0.00637
6003.96749	0.00640
6002.03882	0.00640
6000.11014	0.00641
5998.18147	0.00643
5996.25279	0.00645
5994.32411	0.00646
5992.39544	0.00648
5990.46676	0.00649
5988.53809	0.00648
5986.60941	0.00649
5984.68074	0.00651
5982.75206	0.00654
5980.82338	0.00655
5978.89471	0.00656
5976.96603	0.00657
5975.03736	0.00657
5973.10868	0.00657
5971.18001	0.00660
5969.25133	0.00663
5967.32265	0.00665
5965.39398	0.00667
5963.46530	0.00668
5961.53663	0.00669
5959.60795	0.00670
5957.67928	0.00672
5955.75060	0.00673
5953.82192	0.00675
5951.89325	0.00675
5949.96457	0.00674
5948.03590	0.00674
5946.10722	0.00675
5944.17855	0.00678
5942.24987	0.00681
5940.32119	0.00683
5938.39252	0.00684
5936.46384	0.00684
5934.53517	0.00686
5932.60649	0.00688
5930.67782	0.00691
5928.74914	0.00693
5926.82046	0.00694
5924.89179	0.00695
5922.96311	0.00694
5921.03444	0.00694
5919.10576	0.00694
5917.17709	0.00695
5915.24841	0.00697
5913.31973	0.00700
5911.39106	0.00704
5909.46238	0.00706
5907.53371	0.00706
5905.60503	0.00705
5903.67636	0.00706
5901.74768	0.00707
5899.81900	0.00710
5897.89033	0.00713
5895.96165	0.00716
5894.03298	0.00717
5892.10430	0.00718
5890.17563	0.00718
5888.24695	0.00718
5886.31827	0.00719
5884.38960	0.00721
5882.46092	0.00723
5880.53225	0.00726
5878.60357	0.00729
5876.67490	0.00730
5874.74622	0.00732
5872.81755	0.00733
5870.88887	0.00735
5868.96019	0.00736
5867.03152	0.00737
5865.10284	0.00737
5863.17417	0.00739
5861.24549	0.00743
5859.31682	0.00746
5857.38814	0.00747
5855.45946	0.00747
5853.53079	0.00747
5851.60211	0.00749
5849.67344	0.00752
5847.74476	0.00754
5845.81609	0.00757
5843.88741	0.00758
5841.95873	0.00758
5840.03006	0.00760
5838.10138	0.00761
5836.17271	0.00762
5834.24403	0.00762
5832.31536	0.00762
5830.38668	0.00765
5828.45800	0.00768
5826.52933	0.00771
5824.60065	0.00774
5822.67198	0.00775
5820.74330	0.00775
5818.81463	0.00776
5816.88595	0.00778
5814.95727	0.00779
5813.02860	0.00780
5811.09992	0.00781
5809.17125	0.00784
5807.24257	0.00785
5805.31390	0.00786
5803.38522	0.00787
5801.45654	0.00789
5799.52787	0.00792
5797.59919	0.00794
5795.67052	0.00796
5793.74184	0.00796
5791.81317	0.00796
5789.88449	0.00799
5787.95581	0.00801
5786.02714	0.00801
5784.09846	0.00800
5782.16979	0.00802
5780.24111	0.00806
5778.31244	0.00808
5776.38376	0.00810
5774.45508	0.00813
5772.52641	0.00814
5770.59773	0.00816
5768.66906	0.00817
5766.74038	0.00818
5764.81171	0.00818
5762.88303	0.00819
5760.95435	0.00821
5759.02568	0.00824
5757.09700	0.00827
5755.16833	0.00830
5753.23965	0.00831
5751.31098	0.00832
5749.38230	0.00833
5747.45362	0.00835
5745.52495	0.00837
5743.59627	0.00839
5741.66760	0.00840
5739.73892	0.00841
5737.81025	0.00842
5735.88157	0.00845
5733.95289	0.00846
5732.02422	0.00847
5730.09554	0.00850
5728.16687	0.00854
5726.23819	0.00857
5724.30952	0.00858
5722.38084	0.00858
5720.45216	0.00858
5718.52349	0.00859
5716.59481	0.00861
5714.66614	0.00864
5712.73746	0.00866
5710.80879	0.00867
5708.88011	0.00869
5706.95143	0.00871
5705.02276	0.00872
5703.09408	0.00871
5701.16541	0.00871
5699.23673	0.00874
5697.30806	0.00878
5695.37938	0.00882
5693.45070	0.00884
5691.52203	0.00885
5689.59335	0.00886
5687.66468	0.00889
5685.73600	0.00891
5683.80733	0.00892
5681.87865	0.00893
5679.94997	0.00896
5678.02130	0.00899
5676.09262	0.00900
5674.16395	0.00901
5672.23527	0.00902
5670.30660	0.00905
5668.37792	0.00907
5666.44924	0.00907
5664.52057	0.00907
5662.59189	0.00908
5660.66322	0.00911
5658.73454	0.00914
5656.80587	0.00917
5654.87719	0.00919
5652.94851	0.00920
5651.01984	0.00922
5649.09116	0.00923
5647.16249	0.00926
5645.23381	0.00928
5643.30514	0.00928
5641.37646	0.00928
5639.44778	0.00929
5637.51911	0.00932
5635.59043	0.00934
5633.66176	0.00937
5631.73308	0.00940
5629.80441	0.00944
5627.87573	0.00946
5625.94705	0.00946
5624.01838	0.00945
5622.08970	0.00946
5620.16103	0.00949
5618.23235	0.00952
5616.30368	0.00954
5614.37500	0.00956
5612.44632	0.00960
5610.51765	0.00965
5608.58897	0.00967
5606.66030	0.00968
5604.73162	0.00968
5602.80295	0.00969
5600.87427	0.00970
5598.94559	0.00971
5597.01692	0.00973
5595.08824	0.00974
5593.15957	0.00974
5591.23089	0.00976
5589.30222	0.00980
5587.37354	0.00984
5585.44486	0.00988
5583.51619	0.00989
5581.58751	0.00989
5579.65884	0.00990
5577.73016	0.00992
5575.80149	0.00994
5573.87281	0.00996
5571.94413	0.00997
5570.01546	0.01000
5568.08678	0.01003
5566.15811	0.01003
5564.22943	0.01004
5562.30076	0.01005
5560.37208	0.01008
5558.44340	0.01010
5556.51473	0.01013
5554.58605	0.01014
5552.65738	0.01015
5550.72870	0.01016
5548.80003	0.01018
5546.87135	0.01020
5544.94267	0.01023
5543.01400	0.01026
5541.08532	0.01028
5539.15665	0.01031
5537.22797	0.01033
5535.29930	0.01035
5533.37062	0.01038
5531.44194	0.01040
5529.51327	0.01042
5527.58459	0.01042
5525.65592	0.01042
5523.72724	0.01044
5521.79857	0.01048
5519.86989	0.01050
5517.94121	0.01050
5516.01254	0.01052
5514.08386	0.01055
5512.15519	0.01058
5510.22651	0.01060
5508.29784	0.01061
5506.36916	0.01064
5504.44048	0.01067
5502.51181	0.01068
5500.58313	0.01070
5498.65446	0.01073
5496.72578	0.01076
5494.79711	0.01077
5492.86843	0.01078
5490.93975	0.01080
5489.01108	0.01082
5487.08240	0.01085
5485.15373	0.01086
5483.22505	0.01086
5481.29638	0.01088
5479.36770	0.01091
5477.43902	0.01094
5475.51035	0.01096
5473.58167	0.01099
5471.65300	0.01102
5469.72432	0.01104
5467.79565	0.01105
5465.86697	0.01108
5463.93829	0.01111
5462.00962	0.01112
5460.08094	0.01114
5458.15227	0.01115
5456.22359	0.01115
5454.29492	0.01117
5452.36624	0.01121
5450.43756	0.01124
5448.50889	0.01127
5446.58021	0.01130
5444.65154	0.01132
5442.72286	0.01132
5440.79419	0.01131
5438.86551	0.01133
5436.93683	0.01138
5435.00816	0.01142
5433.07948	0.01144
5431.15081	0.01144
5429.22213	0.01145
5427.29346	0.01146
5425.36478	0.01148
5423.43610	0.01148
5421.50743	0.01152
5419.57875	0.01157
5417.65008	0.01161
5415.72140	0.01163
5413.79273	0.01164
5411.86405	0.01165
5409.93537	0.01166
5408.00670	0.01168
5406.07802	0.01170
5404.14935	0.01172
5402.22067	0.01175
5400.29200	0.01178
5398.36332	0.01180
5396.43464	0.01182
5394.50597	0.01183
5392.57729	0.01184
5390.64862	0.01186
5388.71994	0.01187
5386.79127	0.01189
5384.86259	0.01192
5382.93391	0.01196
5381.00524	0.01201
5379.07656	0.01204
5377.14789	0.01204
5375.21921	0.01202
5373.29054	0.01203
5371.36186	0.01206
5369.43318	0.01211
5367.50451	0.01213
5365.57583	0.01214
5363.64716	0.01217
5361.71848	0.01220
5359.78981	0.01223
5357.86113	0.01226
5355.93245	0.01228
5354.00378	0.01230
5352.07510	0.01232
5350.14643	0.01234
5348.21775	0.01235
5346.28908	0.01235
5344.36040	0.01236
5342.43172	0.01241
5340.50305	0.01246
5338.57437	0.01249
5336.64570	0.01250
5334.71702	0.01250
5332.78835	0.01251
5330.85967	0.01254
5328.93099	0.01258
5327.00232	0.01261
5325.07364	0.01264
5323.14497	0.01265
5321.21629	0.01267
5319.28762	0.01269
5317.35894	0.01270
5315.43026	0.01272
5313.50159	0.01275
5311.57291	0.01277
5309.64424	0.01280
5307.71556	0.01283
5305.78689	0.01285
5303.85821	0.01287
5301.92953	0.01290
5300.00086	0.01293
5298.07218	0.01295
5296.14351	0.01296
5294.21483	0.01298
5292.28616	0.01300
5290.35748	0.01303
5288.42880	0.01306
5286.50013	0.01308
5284.57145	0.01310
5282.64278	0.01312
5280.71410	0.01313
5278.78543	0.01314
5276.85675	0.01316
5274.92807	0.01319
5272.99940	0.01320
5271.07072	0.01323
5269.14205	0.01329
5267.21337	0.01333
5265.28470	0.01335
5263.35602	0.01337
5261.42734	0.01340
5259.49867	0.01342
5257.56999	0.01343
5255.64132	0.01343
5253.71264	0.01344
5251.78397	0.01347
5249.85529	0.01349
5247.92661	0.01352
5245.99794	0.01355
5244.06926	0.01359
5242.14059	0.01362
5240.21191	0.01364
5238.28324	0.01367
5236.35456	0.01370
5234.42588	0.01372
5232.49721	0.01374
5230.56853	0.01379
5228.63986	0.01381
5226.71118	0.01381
5224.78251	0.01383
5222.85383	0.01385
5220.92515	0.01388
5218.99648	0.01391
5217.06780	0.01392
5215.13913	0.01393
5213.21045	0.01395
5211.28178	0.01400
5209.35310	0.01404
5207.42442	0.01405
5205.49575	0.01407
5203.56707	0.01410
5201.63840	0.01412
5199.70972	0.01413
5197.78105	0.01415
5195.85237	0.01418
5193.92369	0.01420
5191.99502	0.01422
5190.06634	0.01426
5188.13767	0.01429
5186.20899	0.01431
5184.28032	0.01433
5182.35164	0.01434
5180.42296	0.01437
5178.49429	0.01440
5176.56561	0.01443
5174.63694	0.01446
5172.70826	0.01449
5170.77959	0.01452
5168.85091	0.01454
5166.92223	0.01456
5164.99356	0.01459
5163.06488	0.01461
5161.13621	0.01463
5159.20753	0.01466
5157.27886	0.01469
5155.35018	0.01469
5153.42150	0.01469
5151.49283	0.01472
5149.56415	0.01476
5147.63548	0.01480
5145.70680	0.01483
5143.77813	0.01486
5141.84945	0.01489
5139.92077	0.01493
5137.99210	0.01494
5136.06342	0.01496
5134.13475	0.01498
5132.20607	0.01502
5130.27740	0.01505
5128.34872	0.01508
5126.42004	0.01510
5124.49137	0.01512
5122.56269	0.01513
5120.63402	0.01516
5118.70534	0.01519
5116.77667	0.01521
5114.84799	0.01523
5112.91931	0.01525
5110.99064	0.01527
5109.06196	0.01531
5107.13329	0.01536
5105.20461	0.01539
5103.27594	0.01541
5101.34726	0.01541
5099.41858	0.01543
5097.48991	0.01546
5095.56123	0.01548
5093.63256	0.01551
5091.70388	0.01554
5089.77521	0.01557
5087.84653	0.01560
5085.91785	0.01564
5083.98918	0.01565
5082.06050	0.01567
5080.13183	0.01569
5078.20315	0.01570
5076.27448	0.01571
5074.34580	0.01572
5072.41712	0.01575
5070.48845	0.01578
5068.55977	0.01583
5066.63110	0.01587
5064.70242	0.01589
5062.77375	0.01590
5060.84507	0.01593
5058.91639	0.01596
5056.98772	0.01599
5055.05904	0.01602
5053.13037	0.01604
5051.20169	0.01606
5049.27302	0.01609
5047.34434	0.01613
5045.41566	0.01616
5043.48699	0.01618
5041.55831	0.01620
5039.62964	0.01623
5037.70096	0.01624
5035.77229	0.01624
5033.84361	0.01627
5031.91493	0.01631
5029.98626	0.01633
5028.05758	0.01635
5026.12891	0.01637
5024.20023	0.01641
5022.27156	0.01643
5020.34288	0.01645
5018.41420	0.01648
5016.48553	0.01653
5014.55685	0.01655
5012.62818	0.01656
5010.69950	0.01659
5008.77083	0.01663
5006.84215	0.01667
5004.91347	0.01669
5002.98480	0.01671
5001.05612	0.01674
4999.12745	0.01677
4997.19877	0.01679
4995.27010	0.01682
4993.34142	0.01686
4991.41274	0.01690
4989.48407	0.01693
4987.55539	0.01697
4985.62672	0.01700
4983.69804	0.01703
4981.76937	0.01704
4979.84069	0.01705
4977.91201	0.01706
4975.98334	0.01710
4974.05466	0.01712
4972.12599	0.01714
4970.19731	0.01716
4968.26864	0.01720
4966.33996	0.01723
4964.41128	0.01727
4962.48261	0.01730
4960.55393	0.01732
4958.62526	0.01735
4956.69658	0.01739
4954.76791	0.01742
4952.83923	0.01745
4950.91055	0.01749
4948.98188	0.01752
4947.05320	0.01753
4945.12453	0.01755
4943.19585	0.01758
4941.26718	0.01760
4939.33850	0.01763
4937.40982	0.01767
4935.48115	0.01770
4933.55247	0.01772
4931.62380	0.01774
4929.69512	0.01776
4927.76645	0.01779
4925.83777	0.01780
4923.90909	0.01784
4921.98042	0.01788
4920.05174	0.01792
4918.12307	0.01794
4916.19439	0.01796
4914.26572	0.01800
4912.33704	0.01805
4910.40836	0.01809
4908.47969	0.01811
4906.55101	0.01811
4904.62234	0.01813
4902.69366	0.01818
4900.76499	0.01823
4898.83631	0.01826
4896.90763	0.01828
4894.97896	0.01831
4893.05028	0.01832
4891.12161	0.01832
4889.19293	0.01835
4887.26426	0.01839
4885.33558	0.01844
4883.40690	0.01847
4881.47823	0.01849
4879.54955	0.01849
4877.62088	0.01850
4875.69220	0.01856
4873.76353	0.01863
4871.83485	0.01866
4869.90617	0.01867
4867.97750	0.01867
4866.04882	0.01869
4864.12015	0.01873
4862.19147	0.01878
4860.26280	0.01882
4858.33412	0.01885
4856.40544	0.01887
4854.47677	0.01890
4852.54809	0.01891
4850.61942	0.01892
4848.69074	0.01896
4846.76207	0.01901
4844.83339	0.01904
4842.90471	0.01905
4840.97604	0.01907
4839.04736	0.01911
4837.11869	0.01915
4835.19001	0.01918
4833.26134	0.01922
4831.33266	0.01925
4829.40398	0.01928
4827.47531	0.01932
4825.54663	0.01937
4823.61796	0.01940
4821.68928	0.01941
4819.76061	0.01943
4817.83193	0.01948
4815.90325	0.01953
4813.97458	0.01956
4812.04590	0.01958
4810.11723	0.01960
4808.18855	0.01963
4806.25988	0.01967
4804.33120	0.01970
4802.40252	0.01973
4800.47385	0.01976
4798.54517	0.01977
4796.61650	0.01980
4794.68782	0.01984
4792.75915	0.01990
4790.83047	0.01995
4788.90179	0.01998
4786.97312	0.02000
4785.04444	0.02001
4783.11577	0.02002
4781.18709	0.02005
4779.25842	0.02009
4777.32974	0.02013
4775.40106	0.02016
4773.47239	0.02017
4771.54371	0.02019
4769.61504	0.02023
4767.68636	0.02029
4765.75769	0.02034
4763.82901	0.02038
4761.90033	0.02042
4759.97166	0.02045
4758.04298	0.02048
4756.11431	0.02050
4754.18563	0.02050
4752.25696	0.02054
4750.32828	0.02058
4748.39960	0.02063
4746.47093	0.02067
4744.54225	0.02069
4742.61358	0.02071
4740.68490	0.02073
4738.75623	0.02077
4736.82755	0.02080
4734.89887	0.02082
4732.97020	0.02086
4731.04152	0.02091
4729.11285	0.02095
4727.18417	0.02097
4725.25550	0.02101
4723.32682	0.02104
4721.39814	0.02106
4719.46947	0.02109
4717.54079	0.02113
4715.61212	0.02116
4713.68344	0.02119
4711.75477	0.02122
4709.82609	0.02125
4707.89741	0.02129
4705.96874	0.02133
4704.04006	0.02137
4702.11139	0.02140
4700.18271	0.02143
4698.25404	0.02146
4696.32536	0.02150
4694.39668	0.02155
4692.46801	0.02161
4690.53933	0.02165
4688.61066	0.02167
4686.68198	0.02169
4684.75331	0.02174
4682.82463	0.02178
4680.89595	0.02179
4678.96728	0.02180
4677.03860	0.02182
4675.10993	0.02186
4673.18125	0.02191
4671.25258	0.02195
4669.32390	0.02200
4667.39522	0.02202
4665.46655	0.02205
4663.53787	0.02209
4661.60920	0.02214
4659.68052	0.02217
4657.75185	0.02218
4655.82317	0.02220
4653.89449	0.02223
4651.96582	0.02226
4650.03714	0.02231
4648.10847	0.02238
4646.17979	0.02244
4644.25112	0.02248
4642.32244	0.02251
4640.39376	0.02254
4638.46509	0.02257
4636.53641	0.02260
4634.60774	0.02263
4632.67906	0.02267
4630.75039	0.02270
4628.82171	0.02272
4626.89303	0.02275
4624.96436	0.02277
4623.03568	0.02280
4621.10701	0.02284
4619.17833	0.02291
4617.24966	0.02297
4615.32098	0.02303
4613.39230	0.02309
4611.46363	0.02313
4609.53495	0.02315
4607.60628	0.02316
4605.67760	0.02320
4603.74893	0.02325
4601.82025	0.02329
4599.89157	0.02330
4597.96290	0.02332
4596.03422	0.02338
4594.10555	0.02346
4592.17687	0.02351
4590.24820	0.02354
4588.31952	0.02356
4586.39084	0.02357
4584.46217	0.02360
4582.53349	0.02364
4580.60482	0.02370
4578.67614	0.02375
4576.74747	0.02379
4574.81879	0.02382
4572.89011	0.02384
4570.96144	0.02387
4569.03276	0.02391
4567.10409	0.02395
4565.17541	0.02400
4563.24674	0.02406
4561.31806	0.02411
4559.38938	0.02416
4557.46071	0.02421
4555.53203	0.02425
4553.60336	0.02427
4551.67468	0.02428
4549.74601	0.02430
4547.81733	0.02434
4545.88865	0.02438
4543.95998	0.02443
4542.03130	0.02448
4540.10263	0.02452
4538.17395	0.02457
4536.24528	0.02461
4534.31660	0.02464
4532.38792	0.02468
4530.45925	0.02471
4528.53057	0.02474
4526.60190	0.02477
4524.67322	0.02481
4522.74455	0.02484
4520.81587	0.02489
4518.88719	0.02495
4516.95852	0.02502
4515.02984	0.02507
4513.10117	0.02509
4511.17249	0.02511
4509.24382	0.02515
4507.31514	0.02520
4505.38646	0.02526
4503.45779	0.02530
4501.52911	0.02532
4499.60044	0.02535
4497.67176	0.02540
4495.74309	0.02545
4493.81441	0.02552
4491.88573	0.02558
4489.95706	0.02562
4488.02838	0.02566
4486.09971	0.02572
4484.17103	0.02578
4482.24236	0.02579
4480.31368	0.02580
4478.38500	0.02585
4476.45633	0.02592
4474.52765	0.02596
4472.59898	0.02600
4470.67030	0.02604
4468.74163	0.02609
4466.81295	0.02614
4464.88427	0.02620
4462.95560	0.02624
4461.02692	0.02626
4459.09825	0.02629
4457.16957	0.02635
4455.24090	0.02643
4453.31222	0.02648
4451.38354	0.02652
4449.45487	0.02654
4447.52619	0.02657
4445.59752	0.02660
4443.66884	0.02665
4441.74017	0.02671
4439.81149	0.02677
4437.88281	0.02681
4435.95414	0.02684
4434.02546	0.02687
4432.09679	0.02693
4430.16811	0.02701
4428.23944	0.02708
4426.31076	0.02713
4424.38208	0.02716
4422.45341	0.02717
4420.52473	0.02721
4418.59606	0.02727
4416.66738	0.02734
4414.73871	0.02739
4412.81003	0.02740
4410.88135	0.02742
4408.95268	0.02748
4407.02400	0.02755
4405.09533	0.02760
4403.16665	0.02764
4401.23798	0.02770
4399.30930	0.02775
4397.38062	0.02781
4395.45195	0.02787
4393.52327	0.02791
4391.59460	0.02794
4389.66592	0.02798
4387.73725	0.02804
4385.80857	0.02809
4383.87989	0.02815
4381.95122	0.02821
4380.02254	0.02825
4378.09387	0.02828
4376.16519	0.02832
4374.23652	0.02837
4372.30784	0.02842
4370.37916	0.02847
4368.45049	0.02853
4366.52181	0.02857
4364.59314	0.02863
4362.66446	0.02871
4360.73579	0.02878
4358.80711	0.02884
4356.87843	0.02888
4354.94976	0.02893
4353.02108	0.02897
4351.09241	0.02900
4349.16373	0.02903
4347.23506	0.02908
4345.30638	0.02912
4343.37770	0.02916
4341.44903	0.02921
4339.52035	0.02927
4337.59168	0.02935
4335.66300	0.02943
4333.73433	0.02947
4331.80565	0.02948
4329.87697	0.02953
4327.94830	0.02960
4326.01962	0.02968
4324.09095	0.02973
4322.16227	0.02976
4320.23360	0.02979
4318.30492	0.02985
4316.37624	0.02991
4314.44757	0.02998
4312.51889	0.03005
4310.59022	0.03013
4308.66154	0.03020
4306.73287	0.03025
4304.80419	0.03029
4302.87551	0.03033
4300.94684	0.03039
4299.01816	0.03046
4297.08949	0.03053
4295.16081	0.03060
4293.23214	0.03065
4291.30346	0.03070
4289.37478	0.03075
4287.44611	0.03078
4285.51743	0.03082
4283.58876	0.03087
4281.66008	0.03093
4279.73141	0.03099
4277.80273	0.03103
4275.87405	0.03108
4273.94538	0.03113
4272.01670	0.03119
4270.08803	0.03127
4268.15935	0.03136
4266.23068	0.03143
4264.30200	0.03148
4262.37332	0.03153
4260.44465	0.03158
4258.51597	0.03163
4256.58730	0.03167
4254.65862	0.03173
4252.72995	0.03179
4250.80127	0.03185
4248.87259	0.03191
4246.94392	0.03197
4245.01524	0.03202
4243.08657	0.03208
4241.15789	0.03212
4239.22922	0.03218
4237.30054	0.03224
4235.37186	0.03232
4233.44319	0.03239
4231.51451	0.03245
4229.58584	0.03251
4227.65716	0.03258
4225.72849	0.03264
4223.79981	0.03268
4221.87113	0.03270
4219.94246	0.03274
4218.01378	0.03282
4216.08511	0.03290
4214.15643	0.03297
4212.22776	0.03303
4210.29908	0.03307
4208.37040	0.03313
4206.44173	0.03321
4204.51305	0.03329
4202.58438	0.03336
4200.65570	0.03343
4198.72703	0.03348
4196.79835	0.03352
4194.86968	0.03359
4192.94100	0.03365
4191.01232	0.03373
4189.08365	0.03383
4187.15497	0.03390
4185.22630	0.03395
4183.29762	0.03398
4181.36895	0.03404
4179.44027	0.03410
4177.51159	0.03414
4175.58292	0.03420
4173.65424	0.03427
4171.72557	0.03434
4169.79689	0.03442
4167.86822	0.03449
4165.93954	0.03456
4164.01086	0.03461
4162.08219	0.03465
4160.15351	0.03471
4158.22484	0.03477
4156.29616	0.03483
4154.36749	0.03489
4152.43881	0.03497
4150.51013	0.03504
4148.58146	0.03512
4146.65278	0.03518
4144.72411	0.03524
4142.79543	0.03529
4140.86676	0.03535
4138.93808	0.03543
4137.00940	0.03552
4135.08073	0.03559
4133.15205	0.03565
4131.22338	0.03571
4129.29470	0.03578
4127.36603	0.03585
4125.43735	0.03591
4123.50867	0.03597
4121.58000	0.03605
4119.65132	0.03612
4117.72265	0.03617
4115.79397	0.03621
4113.86530	0.03627
4111.93662	0.03636
4110.00794	0.03645
4108.07927	0.03653
4106.15059	0.03660
4104.22192	0.03666
4102.29324	0.03672
4100.36457	0.03680
4098.43589	0.03686
4096.50721	0.03692
4094.57854	0.03700
4092.64986	0.03709
4090.72119	0.03718
4088.79251	0.03724
4086.86384	0.03730
4084.93516	0.03737
4083.00648	0.03745
4081.07781	0.03752
4079.14913	0.03759
4077.22046	0.03765
4075.29178	0.03771
4073.36311	0.03778
4071.43443	0.03786
4069.50575	0.03794
4067.57708	0.03802
4065.64840	0.03809
4063.71973	0.03816
4061.79105	0.03826
4059.86238	0.03835
4057.93370	0.03839
4056.00502	0.03844
4054.07635	0.03850
4052.14767	0.03860
4050.21900	0.03869
4048.29032	0.03876
4046.36165	0.03882
4044.43297	0.03888
4042.50429	0.03895
4040.57562	0.03903
4038.64694	0.03912
4036.71827	0.03921
4034.78959	0.03928
4032.86092	0.03934
4030.93224	0.03941
4029.00356	0.03948
4027.07489	0.03956
4025.14621	0.03964
4023.21754	0.03969
4021.28886	0.03975
4019.36019	0.03982
4017.43151	0.03991
4015.50283	0.04000
4013.57416	0.04008
4011.64548	0.04015
4009.71681	0.04022
4007.78813	0.04028
4005.85946	0.04036
4003.93078	0.04044
4002.00210	0.04052
4000.07343	0.04060
3998.14475	0.04068
3996.21608	0.04075
3994.28740	0.04083
3992.35873	0.04092
3990.43005	0.04100
3988.50137	0.04107
3986.57270	0.04114
3984.64402	0.04119
3982.71535	0.04128
3980.78667	0.04138
3978.85800	0.04146
3976.92932	0.04154
3975.00064	0.04162
3973.07197	0.04169
3971.14329	0.04178
3969.21462	0.04187
3967.28594	0.04196
3965.35727	0.04204
3963.42859	0.04210
3961.49991	0.04215
3959.57124	0.04221
3957.64256	0.04228
3955.71389	0.04235
3953.78521	0.04242
3951.85654	0.04249
3949.92786	0.04257
3947.99918	0.04266
3946.07051	0.04276
3944.14183	0.04283
3942.21316	0.04290
3940.28448	0.04298
3938.35581	0.04308
3936.42713	0.04317
3934.49845	0.04325
3932.56978	0.04331
3930.64110	0.04337
3928.71243	0.04343
3926.78375	0.04348
3924.85508	0.04356
3922.92640	0.04371
3920.99772	0.04383
3919.06905	0.04387
3917.14037	0.04390
3915.21170	0.04401
3913.28302	0.04415
3911.35435	0.04426
3909.42567	0.04432
3907.49699	0.04434
3905.56832	0.04431
3903.63964	0.04430
3901.71097	0.04437
3899.78229	0.04452
3897.85362	0.04472
3895.92494	0.04487
3893.99626	0.04492
3892.06759	0.04494
3890.13891	0.04503
3888.21024	0.04511
3886.28156	0.04514
3884.35289	0.04520
3882.42421	0.04527
3880.49553	0.04537
3878.56686	0.04553
3876.63818	0.04567
3874.70951	0.04572
3872.78083	0.04573
3870.85216	0.04577
3868.92348	0.04589
3866.99480	0.04603
3865.06613	0.04611
3863.13745	0.04620
3861.20878	0.04635
3859.28010	0.04645
3857.35143	0.04639
3855.42275	0.04619
3853.49407	0.04617
3851.56540	0.04646
3849.63672	0.04680
3847.70805	0.04700
3845.77937	0.04707
3843.85070	0.04709
3841.92202	0.04712
3839.99334	0.04717
3838.06467	0.04724
3836.13599	0.04738
3834.20732	0.04752
3832.27864	0.04764
3830.34997	0.04775
3828.42129	0.04785
3826.49261	0.04795
3824.56394	0.04801
3822.63526	0.04799
3820.70659	0.04802
3818.77791	0.04813
3816.84924	0.04822
3814.92056	0.04836
3812.99188	0.04857
3811.06321	0.04870
3809.13453	0.04871
3807.20586	0.04873
3805.27718	0.04883
3803.34851	0.04887
3801.41983	0.04890
3799.49115	0.04902
3797.56248	0.04919
3795.63380	0.04937
3793.70513	0.04954
3791.77645	0.04967
3789.84778	0.04976
3787.91910	0.04984
3785.99042	0.04990
3784.06175	0.04997
3782.13307	0.05004
3780.20440	0.05010
3778.27572	0.05022
3776.34705	0.05039
3774.41837	0.05051
3772.48969	0.05052
3770.56102	0.05051
3768.63234	0.05058
3766.70367	0.05070
3764.77499	0.05084
3762.84632	0.05097
3760.91764	0.05104
3758.98896	0.05111
3757.06029	0.05121
3755.13161	0.05125
3753.20294	0.05117
3751.27426	0.05111
3749.34559	0.05119
3747.41691	0.05127
3745.48823	0.05125
3743.55956	0.05140
3741.63088	0.05174
3739.70221	0.05190
3737.77353	0.05184
3735.84486	0.05182
3733.91618	0.05199
3731.98750	0.05222
3730.05883	0.05242
3728.13015	0.05252
3726.20148	0.05258
3724.27280	0.05269
3722.34413	0.05283
3720.41545	0.05296
3718.48677	0.05310
3716.55810	0.05321
3714.62942	0.05323
3712.70075	0.05320
3710.77207	0.05328
3708.84340	0.05348
3706.91472	0.05368
3704.98604	0.05379
3703.05737	0.05383
3701.12869	0.05390
3699.20002	0.05403
3697.27134	0.05413
3695.34267	0.05420
3693.41399	0.05422
3691.48531	0.05419
3689.55664	0.05423
3687.62796	0.05442
3685.69929	0.05465
3683.77061	0.05480
3681.84194	0.05487
3679.91326	0.05487
3677.98458	0.05479
3676.05591	0.05475
3674.12723	0.05490
3672.19856	0.05508
3670.26988	0.05518
3668.34121	0.05534
3666.41253	0.05557
3664.48385	0.05574
3662.55518	0.05585
3660.62650	0.05593
3658.69783	0.05594
3656.76915	0.05594
3654.84048	0.05599
3652.91180	0.05597
3650.98312	0.05581
3649.05445	0.05573
3647.12577	0.05589
3645.19710	0.05622
3643.26842	0.05650
3641.33975	0.05665
3639.41107	0.05678
3637.48239	0.05688
3635.55372	0.05692
3633.62504	0.05693
3631.69637	0.05687
3629.76769	0.05679
3627.83902	0.05692
3625.91034	0.05722
3623.98166	0.05741
3622.05299	0.05743
3620.12431	0.05740
3618.19564	0.05745
3616.26696	0.05753
3614.33829	0.05758
3612.40961	0.05762
3610.48093	0.05767
3608.55226	0.05776
3606.62358	0.05795
3604.69491	0.05811
3602.76623	0.05818
3600.83756	0.05823
3598.90888	0.05832
3596.98020	0.05840
3595.05153	0.05848
3593.12285	0.05855
3591.19418	0.05856
3589.26550	0.05850
3587.33683	0.05853
3585.40815	0.05871
3583.47947	0.05891
3581.55080	0.05904
3579.62212	0.05913
3577.69345	0.05920
3575.76477	0.05930
3573.83610	0.05938
3571.90742	0.05942
3569.97874	0.05935
3568.05007	0.05929
3566.12139	0.05938
3564.19272	0.05959
3562.26404	0.05977
3560.33537	0.05987
3558.40669	0.05994
3556.47801	0.06002
3554.54934	0.06011
3552.62066	0.06020
3550.69199	0.06025
3548.76331	0.06026
3546.83464	0.06028
3544.90596	0.06037
3542.97728	0.06050
3541.04861	0.06059
3539.11993	0.06061
3537.19126	0.06063
3535.26258	0.06070
3533.33391	0.06080
3531.40523	0.06087
3529.47655	0.06090
3527.54788	0.06091
3525.61920	0.06097
3523.69053	0.06104
3521.76185	0.06110
3519.83318	0.06114
3517.90450	0.06116
3515.97582	0.06119
3514.04715	0.06126
3512.11847	0.06132
3510.18980	0.06136
3508.26112	0.06139
3506.33245	0.06140
3504.40377	0.06142
3502.47509	0.06147
3500.54642	0.06153
3498.61774	0.06154
3496.68907	0.06154
3494.76039	0.06156
3492.83172	0.06160
3490.90304	0.06165
3488.97436	0.06167
3487.04569	0.06168
3485.11701	0.06171
3483.18834	0.06176
3481.25966	0.06182
3479.33099	0.06190
3477.40231	0.06200
3475.47363	0.06206
3473.54496	0.06212
3471.61628	0.06221
3469.68761	0.06233
3467.75893	0.06241
3465.83026	0.06247
3463.90158	0.06255
3461.97290	0.06264
3460.04423	0.06275
3458.11555	0.06284
3456.18688	0.06294
3454.25820	0.06307
3452.32953	0.06319
3450.40085	0.06329
3448.47217	0.06338
3446.54350	0.06348
3444.61482	0.06359
3442.68615	0.06368
3440.75747	0.06378
3438.82880	0.06392
3436.90012	0.06410
3434.97144	0.06429
3433.04277	0.06448
3431.11409	0.06468
3429.18542	0.06488
3427.25674	0.06508
3425.32807	0.06528
3423.39939	0.06546
3421.47071	0.06566
3419.54204	0.06586
3417.61336	0.06606
3415.68469	0.06621
3413.75601	0.06634
3411.82734	0.06647
3409.89866	0.06664
3407.96998	0.06681
3406.04131	0.06693
3404.11263	0.06704
3402.18396	0.06716
3400.25528	0.06728
3398.32661	0.06742
3396.39793	0.06756
3394.46925	0.06769
3392.54058	0.06782
3390.61190	0.06797
3388.68323	0.06813
3386.75455	0.06829
3384.82588	0.06842
3382.89720	0.06854
3380.96852	0.06866
3379.03985	0.06879
3377.11117	0.06892
3375.18250	0.06904
3373.25382	0.06918
3371.32515	0.06932
3369.39647	0.06943
3367.46779	0.06952
3365.53912	0.06964
3363.61044	0.06979
3361.68177	0.06994
3359.75309	0.07006
3357.82442	0.07018
3355.89574	0.07028
3353.96706	0.07038
3352.03839	0.07051
3350.10971	0.07068
3348.18104	0.07084
3346.25236	0.07094
3344.32369	0.07105
3342.39501	0.07118
3340.46633	0.07131
3338.53766	0.07144
3336.60898	0.07154
3334.68031	0.07165
3332.75163	0.07178
3330.82296	0.07192
3328.89428	0.07207
3326.96560	0.07221
3325.03693	0.07233
3323.10825	0.07242
3321.17958	0.07253
3319.25090	0.07267
3317.32223	0.07283
3315.39355	0.07297
3313.46487	0.07306
3311.53620	0.07315
3309.60752	0.07328
3307.67885	0.07345
3305.75017	0.07362
3303.82150	0.07375
3301.89282	0.07386
3299.96414	0.07399
3298.03547	0.07413
3296.10679	0.07428
3294.17812	0.07443
3292.24944	0.07456
3290.32077	0.07467
3288.39209	0.07480
3286.46341	0.07493
3284.53474	0.07507
3282.60606	0.07521
3280.67739	0.07536
3278.74871	0.07547
3276.82004	0.07557
3274.89136	0.07568
3272.96268	0.07582
3271.03401	0.07598
3269.10533	0.07613
3267.17666	0.07624
3265.24798	0.07637
3263.31931	0.07652
3261.39063	0.07667
3259.46195	0.07680
3257.53328	0.07693
3255.60460	0.07708
3253.67593	0.07723
3251.74725	0.07734
3249.81858	0.07747
3247.88990	0.07765
3245.96122	0.07782
3244.03255	0.07796
3242.10387	0.07809
3240.17520	0.07821
3238.24652	0.07833
3236.31785	0.07846
3234.38917	0.07860
3232.46049	0.07876
3230.53182	0.07892
3228.60314	0.07907
3226.67447	0.07920
3224.74579	0.07931
3222.81712	0.07943
3220.88844	0.07956
3218.95976	0.07969
3217.03109	0.07983
3215.10241	0.07997
3213.17374	0.08011
3211.24506	0.08023
3209.31639	0.08034
3207.38771	0.08047
3205.45903	0.08062
3203.53036	0.08077
3201.60168	0.08094
3199.67301	0.08111
3197.74433	0.08127
3195.81566	0.08143
3193.88698	0.08158
3191.95830	0.08172
3190.02963	0.08185
3188.10095	0.08199
3186.17228	0.08214
3184.24360	0.08227
3182.31493	0.08242
3180.38625	0.08257
3178.45757	0.08272
3176.52890	0.08286
3174.60022	0.08300
3172.67155	0.08315
3170.74287	0.08329
3168.81420	0.08342
3166.88552	0.08355
3164.95684	0.08370
3163.02817	0.08383
3161.09949	0.08397
3159.17082	0.08413
3157.24214	0.08428
3155.31347	0.08442
3153.38479	0.08456
3151.45611	0.08471
3149.52744	0.08486
3147.59876	0.08500
3145.67009	0.08513
3143.74141	0.08529
3141.81274	0.08548
3139.88406	0.08564
3137.95538	0.08577
3136.02671	0.08589
3134.09803	0.08601
3132.16936	0.08612
3130.24068	0.08626
3128.31201	0.08641
3126.38333	0.08654
3124.45465	0.08667
3122.52598	0.08680
3120.59730	0.08698
3118.66863	0.08715
3116.73995	0.08730
3114.81128	0.08741
3112.88260	0.08750
3110.95392	0.08763
3109.02525	0.08779
3107.09657	0.08795
3105.16790	0.08808
3103.23922	0.08819
3101.31055	0.08829
3099.38187	0.08843
3097.45319	0.08863
3095.52452	0.08884
3093.59584	0.08903
3091.66717	0.08920
3089.73849	0.08934
3087.80982	0.08946
3085.88114	0.08959
3083.95246	0.08972
3082.02379	0.08985
3080.09511	0.09000
3078.16644	0.09015
3076.23776	0.09027
3074.30909	0.09041
3072.38041	0.09057
3070.45173	0.09072
3068.52306	0.09082
3066.59438	0.09093
3064.66571	0.09105
3062.73703	0.09120
3060.80836	0.09135
3058.87968	0.09149
3056.95100	0.09163
3055.02233	0.09181
3053.09365	0.09200
3051.16498	0.09218
3049.23630	0.09232
3047.30763	0.09242
3045.37895	0.09253
3043.45027	0.09267
3041.52160	0.09281
3039.59292	0.09295
3037.66425	0.09310
3035.73557	0.09325
3033.80690	0.09338
3031.87822	0.09350
3029.94954	0.09365
3028.02087	0.09381
3026.09219	0.09396
3024.16352	0.09409
3022.23484	0.09423
3020.30617	0.09437
3018.37749	0.09450
3016.44881	0.09460
3014.52014	0.09472
3012.59146	0.09487
3010.66279	0.09503
3008.73411	0.09517
3006.80544	0.09530
3004.87676	0.09545
3002.94808	0.09561
3001.01941	0.09576
2999.09073	0.09589
2997.16206	0.09603
2995.23338	0.09615
2993.30471	0.09625
2991.37603	0.09636
2989.44735	0.09650
2987.51868	0.09666
2985.59000	0.09678
2983.66133	0.09686
2981.73265	0.09694
2979.80398	0.09701
2977.87530	0.09705
2975.94662	0.09706
2974.01795	0.09706
2972.08927	0.09706
2970.16060	0.09705
2968.23192	0.09704
2966.30325	0.09704
2964.37457	0.09709
2962.44589	0.09721
2960.51722	0.09736
2958.58854	0.09754
2956.65987	0.09773
2954.73119	0.09792
2952.80252	0.09810
2950.87384	0.09826
2948.94516	0.09841
2947.01649	0.09853
2945.08781	0.09860
2943.15914	0.09866
2941.23046	0.09871
2939.30179	0.09874
2937.37311	0.09873
2935.44443	0.09872
2933.51576	0.09871
2931.58708	0.09871
2929.65841	0.09871
2927.72973	0.09867
2925.80106	0.09863
2923.87238	0.09864
2921.94370	0.09868
2920.01503	0.09877
2918.08635	0.09894
2916.15768	0.09926
2914.22900	0.09973
2912.30033	0.10020
2910.37165	0.10060
2908.44297	0.10091
2906.51430	0.10118
2904.58562	0.10145
2902.65695	0.10170
2900.72827	0.10191
2898.79960	0.10212
2896.87092	0.10235
2894.94224	0.10257
2893.01357	0.10276
2891.08489	0.10296
2889.15622	0.10317
2887.22754	0.10336
2885.29887	0.10351
2883.37019	0.10365
2881.44151	0.10379
2879.51284	0.10393
2877.58416	0.10407
2875.65549	0.10421
2873.72681	0.10434
2871.79814	0.10447
2869.86946	0.10460
2867.94078	0.10472
2866.01211	0.10485
2864.08343	0.10498
2862.15476	0.10506
2860.22608	0.10507
2858.29741	0.10508
2856.36873	0.10506
2854.44005	0.10503
2852.51138	0.10502
2850.58270	0.10511
2848.65403	0.10536
2846.72535	0.10580
2844.79668	0.10632
2842.86800	0.10677
2840.93932	0.10709
2839.01065	0.10733
2837.08197	0.10758
2835.15330	0.10783
2833.22462	0.10805
2831.29595	0.10823
2829.36727	0.10838
2827.43859	0.10853
2825.50992	0.10871
2823.58124	0.10890
2821.65257	0.10906
2819.72389	0.10920
2817.79522	0.10934
2815.86654	0.10952
2813.93786	0.10969
2812.00919	0.10982
2810.08051	0.10996
2808.15184	0.11013
2806.22316	0.11029
2804.29449	0.11043
2802.36581	0.11060
2800.43713	0.11077
2798.50846	0.11094
2796.57978	0.11110
2794.65111	0.11124
2792.72243	0.11141
2790.79376	0.11159
2788.86508	0.11174
2786.93640	0.11189
2785.00773	0.11203
2783.07905	0.11216
2781.15038	0.11231
2779.22170	0.11249
2777.29303	0.11265
2775.36435	0.11279
2773.43567	0.11291
2771.50700	0.11303
2769.57832	0.11319
2767.64965	0.11338
2765.72097	0.11359
2763.79230	0.11375
2761.86362	0.11388
2759.93494	0.11401
2758.00627	0.11417
2756.07759	0.11434
2754.14892	0.11449
2752.22024	0.11462
2750.29157	0.11478
2748.36289	0.11496
2746.43421	0.11512
2744.50554	0.11526
2742.57686	0.11540
2740.64819	0.11553
2738.71951	0.11566
2736.79084	0.11581
2734.86216	0.11597
2732.93348	0.11613
2731.00481	0.11627
2729.07613	0.11641
2727.14746	0.11657
2725.21878	0.11675
2723.29011	0.11691
2721.36143	0.11705
2719.43275	0.11719
2717.50408	0.11732
2715.57540	0.11747
2713.64673	0.11762
2711.71805	0.11777
2709.78938	0.11791
2707.86070	0.11807
2705.93202	0.11824
2704.00335	0.11841
2702.07467	0.11853
2700.14600	0.11866
2698.21732	0.11880
2696.28865	0.11893
2694.35997	0.11905
2692.43129	0.11918
2690.50262	0.11933
2688.57394	0.11951
2686.64527	0.11966
2684.71659	0.11977
2682.78792	0.11992
2680.85924	0.12011
2678.93056	0.12028
2677.00189	0.12040
2675.07321	0.12053
2673.14454	0.12068
2671.21586	0.12083
2669.28719	0.12097
2667.35851	0.12110
2665.42983	0.12123
2663.50116	0.12137
2661.57248	0.12152
2659.64381	0.12169
2657.71513	0.12187
2655.78646	0.12206
2653.85778	0.12223
2651.92910	0.12236
2650.00043	0.12246
2648.07175	0.12256
2646.14308	0.12269
2644.21440	0.12288
2642.28573	0.12307
2640.35705	0.12324
2638.42837	0.12340
2636.49970	0.12354
2634.57102	0.12366
2632.64235	0.12380
2630.71367	0.12399
2628.78500	0.12419
2626.85632	0.12436
2624.92764	0.12452
2622.99897	0.12468
2621.07029	0.12487
2619.14162	0.12505
2617.21294	0.12521
2615.28427	0.12535
2613.35559	0.12549
2611.42691	0.12562
2609.49824	0.12577
2607.56956	0.12594
2605.64089	0.12613
2603.71221	0.12631
2601.78354	0.12648
2599.85486	0.12664
2597.92618	0.12677
2595.99751	0.12687
2594.06883	0.12699
2592.14016	0.12717
2590.21148	0.12739
2588.28281	0.12758
2586.35413	0.12774
2584.42545	0.12791
2582.49678	0.12808
2580.56810	0.12821
2578.63943	0.12831
2576.71075	0.12843
2574.78208	0.12860
2572.85340	0.12878
2570.92472	0.12894
2568.99605	0.12907
2567.06737	0.12921
2565.13870	0.12937
2563.21002	0.12953
2561.28135	0.12970
2559.35267	0.12986
2557.42399	0.13000
2555.49532	0.13014
2553.56664	0.13030
2551.63797	0.13045
2549.70929	0.13057
2547.78062	0.13070
2545.85194	0.13088
2543.92326	0.13108
2541.99459	0.13124
2540.06591	0.13138
2538.13724	0.13152
2536.20856	0.13166
2534.27989	0.13180
2532.35121	0.13193
2530.42253	0.13208
2528.49386	0.13226
2526.56518	0.13244
2524.63651	0.13260
2522.70783	0.13276
2520.77916	0.13293
2518.85048	0.13308
2516.92181	0.13321
2514.99313	0.13336
2513.06445	0.13353
2511.13578	0.13370
2509.20710	0.13388
2507.27843	0.13406
2505.34975	0.13422
2503.42108	0.13438
2501.49240	0.13456
2499.56372	0.13474
2497.63505	0.13490
2495.70637	0.13507
2493.77770	0.13527
2491.84902	0.13544
2489.92035	0.13558
2487.99167	0.13572
2486.06299	0.13589
2484.13432	0.13608
2482.20564	0.13627
2480.27697	0.13644
2478.34829	0.13662
2476.41962	0.13679
2474.49094	0.13694
2472.56226	0.13713
2470.63359	0.13736
2468.70491	0.13756
2466.77624	0.13769
2464.84756	0.13781
2462.91889	0.13796
2460.99021	0.13814
2459.06153	0.13831
2457.13286	0.13847
2455.20418	0.13862
2453.27551	0.13876
2451.34683	0.13892
2449.41816	0.13910
2447.48948	0.13926
2445.56080	0.13941
2443.63213	0.13958
2441.70345	0.13979
2439.77478	0.13998
2437.84610	0.14015
2435.91743	0.14031
2433.98875	0.14048
2432.06007	0.14064
2430.13140	0.14080
2428.20272	0.14093
2426.27405	0.14106
2424.34537	0.14122
2422.41670	0.14141
2420.48802	0.14158
2418.55934	0.14171
2416.63067	0.14185
2414.70199	0.14200
2412.77332	0.14218
2410.84464	0.14240
2408.91597	0.14261
2406.98729	0.14275
2405.05861	0.14286
2403.12994	0.14300
2401.20126	0.14316
2399.27259	0.14333
2397.34391	0.14349
2395.41524	0.14364
2393.48656	0.14380
2391.55788	0.14396
2389.62921	0.14410
2387.70053	0.14423
2385.77186	0.14437
2383.84318	0.14454
2381.91451	0.14469
2379.98583	0.14478
2378.05715	0.14482
2376.12848	0.14485
2374.19980	0.14493
2372.27113	0.14501
2370.34245	0.14504
2368.41378	0.14507
2366.48510	0.14512
2364.55642	0.14520
2362.62775	0.14530
2360.69907	0.14547
2358.77040	0.14568
2356.84172	0.14591
2354.91305	0.14620
2352.98437	0.14652
2351.05569	0.14687
2349.12702	0.14713
2347.19834	0.14724
2345.26967	0.14723
2343.34099	0.14726
2341.41232	0.14739
2339.48364	0.14757
2337.55496	0.14774
2335.62629	0.14788
2333.69761	0.14802
2331.76894	0.14816
2329.84026	0.14835
2327.91159	0.14857
2325.98291	0.14878
2324.05423	0.14899
2322.12556	0.14919
2320.19688	0.14938
2318.26821	0.14960
2316.33953	0.14984
2314.41086	0.15006
2312.48218	0.15026
2310.55350	0.15048
2308.62483	0.15073
2306.69615	0.15096
2304.76748	0.15115
2302.83880	0.15133
2300.91013	0.15150
2298.98145	0.15168
2297.05277	0.15187
2295.12410	0.15206
2293.19542	0.15222
2291.26675	0.15237
2289.33807	0.15253
2287.40940	0.15269
2285.48072	0.15283
2283.55204	0.15297
2281.62337	0.15312
2279.69469	0.15332
2277.76602	0.15351
2275.83734	0.15366
2273.90867	0.15380
2271.97999	0.15396
2270.05131	0.15412
2268.12264	0.15427
2266.19396	0.15443
2264.26529	0.15457
2262.33661	0.15472
2260.40794	0.15488
2258.47926	0.15504
2256.55058	0.15518
2254.62191	0.15536
2252.69323	0.15557
2250.76456	0.15579
2248.83588	0.15596
2246.90721	0.15609
2244.97853	0.15624
2243.04985	0.15640
2241.12118	0.15655
2239.19250	0.15669
2237.26383	0.15686
2235.33515	0.15707
2233.40648	0.15724
2231.47780	0.15739
2229.54912	0.15753
2227.62045	0.15768
2225.69177	0.15783
2223.76310	0.15798
2221.83442	0.15814
2219.90575	0.15830
2217.97707	0.15845
2216.04839	0.15860
2214.11972	0.15874
2212.19104	0.15889
2210.26237	0.15906
2208.33369	0.15926
2206.40502	0.15946
2204.47634	0.15959
2202.54766	0.15969
2200.61899	0.15983
2198.69031	0.16003
2196.76164	0.16025
2194.83296	0.16042
2192.90429	0.16053
2190.97561	0.16065
2189.04693	0.16081
2187.11826	0.16097
2185.18958	0.16113
2183.26091	0.16131
2181.33223	0.16147
2179.40356	0.16160
2177.47488	0.16173
2175.54620	0.16187
2173.61753	0.16205
2171.68885	0.16226
2169.76018	0.16246
2167.83150	0.16262
2165.90283	0.16277
2163.97415	0.16294
2162.04547	0.16309
2160.11680	0.16324
2158.18812	0.16343
2156.25945	0.16363
2154.33077	0.16381
2152.40210	0.16398
2150.47342	0.16411
2148.54474	0.16424
2146.61607	0.16441
2144.68739	0.16457
2142.75872	0.16472
2140.83004	0.16488
2138.90137	0.16504
2136.97269	0.16522
2135.04401	0.16541
2133.11534	0.16557
2131.18666	0.16574
2129.25799	0.16591
2127.32931	0.16610
2125.40064	0.16627
2123.47196	0.16642
2121.54328	0.16658
2119.61461	0.16675
2117.68593	0.16692
2115.75726	0.16710
2113.82858	0.16728
2111.89991	0.16745
2109.97123	0.16762
2108.04255	0.16779
2106.11388	0.16795
2104.18520	0.16808
2102.25653	0.16820
2100.32785	0.16837
2098.39918	0.16858
2096.47050	0.16880
2094.54182	0.16898
2092.61315	0.16913
2090.68447	0.16927
2088.75580	0.16940
2086.82712	0.16955
2084.89845	0.16974
2082.96977	0.16994
2081.04109	0.17010
2079.11242	0.17021
2077.18374	0.17035
2075.25507	0.17056
2073.32639	0.17076
2071.39772	0.17090
2069.46904	0.17106
2067.54036	0.17124
2065.61169	0.17142
2063.68301	0.17158
2061.75434	0.17173
2059.82566	0.17188
2057.89699	0.17208
2055.96831	0.17228
2054.03963	0.17247
2052.11096	0.17262
2050.18228	0.17275
2048.25361	0.17289
2046.32493	0.17306
2044.39626	0.17320
2042.46758	0.17333
2040.53890	0.17349
2038.61023	0.17369
2036.68155	0.17390
2034.75288	0.17407
2032.82420	0.17426
2030.89553	0.17445
2028.96685	0.17461
2027.03817	0.17477
2025.10950	0.17493
2023.18082	0.17511
2021.25215	0.17525
2019.32347	0.17537
2017.39480	0.17552
2015.46612	0.17571
2013.53744	0.17591
2011.60877	0.17609
2009.68009	0.17628
2007.75142	0.17644
2005.82274	0.17660
2003.89407	0.17674
2001.96539	0.17689
2000.03671	0.17705
1998.10804	0.17721
1996.17936	0.17734
1994.25069	0.17745
1992.32201	0.17757
1990.39334	0.17775
1988.46466	0.17798
1986.53598	0.17817
1984.60731	0.17832
1982.67863	0.17846
1980.74996	0.17861
1978.82128	0.17876
1976.89261	0.17889
1974.96393	0.17903
1973.03525	0.17920
1971.10658	0.17934
1969.17790	0.17944
1967.24923	0.17956
1965.32055	0.17972
1963.39188	0.17989
1961.46320	0.18006
1959.53452	0.18022
1957.60585	0.18035
1955.67717	0.18047
1953.74850	0.18064
1951.81982	0.18083
1949.89115	0.18102
1947.96247	0.18120
1946.03379	0.18133
1944.10512	0.18140
1942.17644	0.18152
1940.24777	0.18177
1938.31909	0.18203
1936.39042	0.18221
1934.46174	0.18235
1932.53306	0.18248
1930.60439	0.18261
1928.67571	0.18273
1926.74704	0.18282
1924.81836	0.18288
1922.88969	0.18300
1920.96101	0.18318
1919.03233	0.18333
1917.10366	0.18352
1915.17498	0.18380
1913.24631	0.18402
1911.31763	0.18416
1909.38896	0.18430
1907.46028	0.18449
1905.53160	0.18468
1903.60293	0.18483
1901.67425	0.18498
1899.74558	0.18511
1897.81690	0.18522
1895.88823	0.18535
1893.95955	0.18552
1892.03087	0.18566
1890.10220	0.18576
1888.17352	0.18594
1886.24485	0.18618
1884.31617	0.18635
1882.38750	0.18650
1880.45882	0.18667
1878.53014	0.18684
1876.60147	0.18701
1874.67279	0.18716
1872.74412	0.18723
1870.81544	0.18716
1868.88677	0.18715
1866.95809	0.18744
1865.02941	0.18785
1863.10074	0.18815
1861.17206	0.18834
1859.24339	0.18851
1857.31471	0.18863
1855.38604	0.18876
1853.45736	0.18893
1851.52868	0.18908
1849.60001	0.18918
1847.67133	0.18917
1845.74266	0.18908
1843.81398	0.18917
1841.88531	0.18958
1839.95663	0.18998
1838.02795	0.19018
1836.09928	0.19036
1834.17060	0.19054
1832.24193	0.19056
1830.31325	0.19051
1828.38458	0.19061
1826.45590	0.19079
1824.52722	0.19104
1822.59855	0.19141
1820.66987	0.19172
1818.74120	0.19187
1816.81252	0.19200
1814.88385	0.19212
1812.95517	0.19219
1811.02649	0.19227
1809.09782	0.19243
1807.16914	0.19258
1805.24047	0.19264
1803.31179	0.19262
1801.38312	0.19265
1799.45444	0.19285
1797.52576	0.19312
1795.59709	0.19320
1793.66841	0.19306
1791.73974	0.19307
1789.81106	0.19343
1787.88239	0.19376
1785.95371	0.19386
1784.02503	0.19392
1782.09636	0.19402
1780.16768	0.19416
1778.23901	0.19437
1776.31033	0.19447
1774.38166	0.19430
1772.45298	0.19414
1770.52430	0.19420
1768.59563	0.19447
1766.66695	0.19487
1764.73828	0.19519
1762.80960	0.19522
1760.88093	0.19520
1758.95225	0.19526
1757.02357	0.19529
1755.09490	0.19530
1753.16622	0.19515
1751.23755	0.19491
1749.30887	0.19488
1747.38020	0.19505
1745.45152	0.19519
1743.52284	0.19522
1741.59417	0.19519
1739.66549	0.19525
1737.73682	0.19525
1735.80814	0.19497
1733.87947	0.19484
1731.95079	0.19523
1730.02211	0.19572
1728.09344	0.19609
1726.16476	0.19637
1724.23609	0.19651
1722.30741	0.19648
1720.37874	0.19620
1718.45006	0.19588
1716.52138	0.19597
1714.59271	0.19647
1712.66403	0.19701
1710.73536	0.19733
1708.80668	0.19736
1706.87801	0.19723
1704.94933	0.19716
1703.02065	0.19690
1701.09198	0.19648
1699.16330	0.19646
1697.23463	0.19679
1695.30595	0.19719
1693.37728	0.19771
1691.44860	0.19798
1689.51992	0.19792
1687.59125	0.19765
1685.66257	0.19718
1683.73390	0.19707
1681.80522	0.19757
1679.87655	0.19804
1677.94787	0.19805
1676.01919	0.19785
1674.09052	0.19784
1672.16184	0.19786
1670.23317	0.19776
1668.30449	0.19793
1666.37582	0.19833
1664.44714	0.19846
1662.51846	0.19845
1660.58979	0.19862
1658.66111	0.19876
1656.73244	0.19841
1654.80376	0.19760
1652.87509	0.19727
1650.94641	0.19777
1649.01773	0.19816
1647.08906	0.19817
1645.16038	0.19848
1643.23171	0.19900
1641.30303	0.19920
1639.37436	0.19900
1637.44568	0.19863
1635.51700	0.19857
1633.58833	0.19902
1631.65965	0.19942
1629.73098	0.19941
1627.80230	0.19925
1625.87363	0.19903
1623.94495	0.19871
1622.01627	0.19855
1620.08760	0.19860
1618.15892	0.19875
1616.23025	0.19924
1614.30157	0.20005
1612.37290	0.20067
1610.44422	0.20097
1608.51554	0.20122
1606.58687	0.20149
1604.65819	0.20166
1602.72952	0.20178
1600.80084	0.20196
1598.87217	0.20221
1596.94349	0.20241
1595.01481	0.20259
1593.08614	0.20279
1591.15746	0.20298
1589.22879	0.20311
1587.30011	0.20326
1585.37144	0.20344
1583.44276	0.20361
1581.51408	0.20372
1579.58541	0.20369
1577.65673	0.20355
1575.72806	0.20366
1573.79938	0.20399
1571.87071	0.20407
1569.94203	0.20398
1568.01335	0.20417
1566.08468	0.20453
1564.15600	0.20473
1562.22733	0.20445
1560.29865	0.20376
1558.36998	0.20352
1556.44130	0.20411
1554.51262	0.20484
1552.58395	0.20531
1550.65527	0.20558
1548.72660	0.20571
1546.79792	0.20567
1544.86925	0.20539
1542.94057	0.20499
1541.01189	0.20476
1539.08322	0.20505
1537.15454	0.20572
1535.22587	0.20605
1533.29719	0.20609
1531.36852	0.20627
1529.43984	0.20643
1527.51116	0.20636
1525.58249	0.20624
1523.65381	0.20600
1521.72514	0.20576
1519.79646	0.20591
1517.86779	0.20626
1515.93911	0.20655
1514.01043	0.20677
1512.08176	0.20679
1510.15308	0.20647
1508.22441	0.20610
1506.29573	0.20624
1504.36706	0.20695
1502.43838	0.20750
1500.50970	0.20750
1498.58103	0.20727
1496.65235	0.20725
1494.72368	0.20745
1492.79500	0.20740
1490.86633	0.20702
1488.93765	0.20686
1487.00897	0.20706
1485.08030	0.20729
1483.15162	0.20730
1481.22295	0.20715
1479.29427	0.20688
1477.36560	0.20641
1475.43692	0.20582
1473.50824	0.20535
1471.57957	0.20521
1469.65089	0.20528
1467.72222	0.20515
1465.79354	0.20480
1463.86487	0.20458
1461.93619	0.20440
1460.00751	0.20380
1458.07884	0.20304
1456.15016	0.20296
1454.22149	0.20353
1452.29281	0.20395
1450.36414	0.20397
1448.43546	0.20390
1446.50678	0.20402
1444.57811	0.20421
1442.64943	0.20434
1440.72076	0.20439
1438.79208	0.20422
1436.86341	0.20407
1434.93473	0.20441
1433.00605	0.20491
1431.07738	0.20512
1429.14870	0.20521
1427.22003	0.20535
1425.29135	0.20540
1423.36268	0.20534
1421.43400	0.20511
1419.50532	0.20485
1417.57665	0.20497
1415.64797	0.20539
1413.71930	0.20567
1411.79062	0.20576
1409.86195	0.20578
1407.93327	0.20570
1406.00459	0.20554
1404.07592	0.20547
1402.14724	0.20546
1400.21857	0.20533
1398.28989	0.20517
1396.36122	0.20503
1394.43254	0.20500
1392.50386	0.20513
1390.57519	0.20512
1388.64651	0.20475
1386.71784	0.20440
1384.78916	0.20434
1382.86049	0.20444
1380.93181	0.20454
1379.00313	0.20454
1377.07446	0.20441
1375.14578	0.20427
1373.21711	0.20425
1371.28843	0.20427
1369.35976	0.20424
1367.43108	0.20421
1365.50240	0.20412
1363.57373	0.20396
1361.64505	0.20400
1359.71638	0.20422
1357.78770	0.20435
1355.85903	0.20438
1353.93035	0.20445
1352.00167	0.20457
1350.07300	0.20466
1348.14432	0.20475
1346.21565	0.20486
1344.28697	0.20491
1342.35830	0.20478
1340.42962	0.20454
1338.50094	0.20435
1336.57227	0.20434
1334.64359	0.20442
1332.71492	0.20444
1330.78624	0.20436
1328.85757	0.20421
1326.92889	0.20405
1325.00021	0.20386
1323.07154	0.20366
1321.14286	0.20351
1319.21419	0.20340
1317.28551	0.20327
1315.35684	0.20313
1313.42816	0.20295
1311.49948	0.20272
1309.57081	0.20245
1307.64213	0.20220
1305.71346	0.20198
1303.78478	0.20177
1301.85611	0.20152
1299.92743	0.20121
1297.99875	0.20095
1296.07008	0.20083
1294.14140	0.20072
1292.21273	0.20052
1290.28405	0.20028
1288.35538	0.20011
1286.42670	0.19996
1284.49802	0.19977
1282.56935	0.19953
1280.64067	0.19926
1278.71200	0.19897
1276.78332	0.19863
1274.85465	0.19820
1272.92597	0.19768
1270.99729	0.19700
1269.06862	0.19611
1267.13994	0.19516
1265.21127	0.19432
1263.28259	0.19372
1261.35392	0.19347
1259.42524	0.19354
1257.49656	0.19377
1255.56789	0.19392
1253.63921	0.19391
1251.71054	0.19377
1249.78186	0.19357
1247.85319	0.19329
1245.92451	0.19288
1243.99583	0.19239
1242.06716	0.19193
1240.13848	0.19150
1238.20981	0.19104
1236.28113	0.19051
1234.35246	0.18994
1232.42378	0.18939
1230.49510	0.18886
1228.56643	0.18830
1226.63775	0.18770
1224.70908	0.18711
1222.78040	0.18661
1220.85173	0.18620
1218.92305	0.18581
1216.99437	0.18533
1215.06570	0.18476
1213.13702	0.18422
1211.20835	0.18371
1209.27967	0.18316
1207.35100	0.18251
1205.42232	0.18183
1203.49364	0.18116
1201.56497	0.18054
1199.63629	0.17996
1197.70762	0.17935
1195.77894	0.17871
1193.85027	0.17806
1191.92159	0.17741
1189.99291	0.17675
1188.06424	0.17608
1186.13556	0.17537
1184.20689	0.17459
1182.27821	0.17375
1180.34954	0.17291
1178.42086	0.17208
1176.49218	0.17118
1174.56351	0.17026
1172.63483	0.16943
1170.70616	0.16863
1168.77748	0.16777
1166.84881	0.16688
1164.92013	0.16605
1162.99145	0.16524
1161.06278	0.16440
1159.13410	0.16355
1157.20543	0.16273
1155.27675	0.16189
1153.34808	0.16103
1151.41940	0.16023
1149.49072	0.15949
1147.56205	0.15875
1145.63337	0.15794
1143.70470	0.15705
1141.77602	0.15607
1139.84735	0.15505
1137.91867	0.15398
1135.98999	0.15282
1134.06132	0.15149
1132.13264	0.14992
1130.20397	0.14804
1128.27529	0.14590
1126.34662	0.14363
1124.41794	0.14131
1122.48926	0.13896
1120.56059	0.13665
1118.63191	0.13448
1116.70324	0.13243
1114.77456	0.13053
1112.84589	0.12885
1110.91721	0.12750
1108.98853	0.12652
1107.05986	0.12582
1105.13118	0.12533
1103.20251	0.12513
1101.27383	0.12527
1099.34516	0.12567
1097.41648	0.12623
1095.48780	0.12694
1093.55913	0.12778
1091.63045	0.12862
1089.70178	0.12940
1087.77310	0.13014
1085.84443	0.13080
1083.91575	0.13132
1081.98707	0.13172
1080.05840	0.13199
1078.12972	0.13217
1076.20105	0.13232
1074.27237	0.13246
1072.34370	0.13257
1070.41502	0.13271
1068.48634	0.13286
1066.55767	0.13297
1064.62899	0.13311
1062.70032	0.13334
1060.77164	0.13360
1058.84297	0.13387
1056.91429	0.13413
1054.98561	0.13441
1053.05694	0.13470
1051.12826	0.13501
1049.19959	0.13536
1047.27091	0.13578
1045.34224	0.13622
1043.41356	0.13663
1041.48488	0.13700
1039.55621	0.13736
1037.62753	0.13775
1035.69886	0.13815
1033.77018	0.13853
1031.84151	0.13889
1029.91283	0.13924
1027.98415	0.13959
1026.05548	0.13993
1024.12680	0.14025
1022.19813	0.14056
1020.26945	0.14093
1018.34078	0.14138
1016.41210	0.14186
1014.48342	0.14237
1012.55475	0.14297
1010.62607	0.14361
1008.69740	0.14422
1006.76872	0.14477
1004.84005	0.14523
1002.91137	0.14563
1000.98269	0.14601
999.05402	0.14638
997.12534	0.14661
995.19667	0.14669
993.26799	0.14673
991.33932	0.14688
989.41064	0.14702
987.48196	0.14705
985.55329	0.14702
983.62461	0.14699
981.69594	0.14690
979.76726	0.14675
977.83859	0.14657
975.90991	0.14638
973.98123	0.14618
972.05256	0.14601
970.12388	0.14589
968.19521	0.14578
966.26653	0.14561
964.33786	0.14544
962.40918	0.14531
960.48050	0.14520
958.55183	0.14507
956.62315	0.14490
954.69448	0.14470
952.76580	0.14452
950.83713	0.14433
948.90845	0.14417
946.97977	0.14403
945.05110	0.14380
943.12242	0.14346
941.19375	0.14313
939.26507	0.14278
937.33640	0.14234
935.40772	0.14186
933.47904	0.14142
931.55037	0.14099
929.62169	0.14052
927.69302	0.13999
925.76434	0.13941
923.83567	0.13881
921.90699	0.13817
919.97831	0.13754
918.04964	0.13693
916.12096	0.13625
914.19229	0.13544
912.26361	0.13463
910.33494	0.13394
908.40626	0.13333
906.47758	0.13268
904.54891	0.13200
902.62023	0.13140
900.69156	0.13087
898.76288	0.13033
896.83421	0.12975
894.90553	0.12920
892.97685	0.12872
891.04818	0.12835
889.11950	0.12799
887.19083	0.12755
885.26215	0.12710
883.33348	0.12670
881.40480	0.12632
879.47612	0.12596
877.54745	0.12569
875.61877	0.12549
873.69010	0.12525
871.76142	0.12499
869.83275	0.12475
867.90407	0.12451
865.97539	0.12426
864.04672	0.12411
862.11804	0.12401
860.18937	0.12382
858.26069	0.12364
856.33202	0.12356
854.40334	0.12350
852.47466	0.12332
850.54599	0.12301
848.61731	0.12264
846.68864	0.12228
844.75996	0.12198
842.83129	0.12168
840.90261	0.12140
838.97394	0.12114
837.04526	0.12073
835.11658	0.12005
833.18791	0.11916
831.25923	0.11820
829.33056	0.11719
827.40188	0.11615
825.47321	0.11516
823.54453	0.11430
821.61585	0.11356
819.68718	0.11292
817.75850	0.11235
815.82983	0.11185
813.90115	0.11149
811.97248	0.11123
810.04380	0.11096
808.11512	0.11072
806.18645	0.11061
804.25777	0.11055
802.32910	0.11045
800.40042	0.11022
798.47175	0.10974
796.54307	0.10905
794.61439	0.10844
792.68572	0.10805
790.75704	0.10778
788.82837	0.10753
786.89969	0.10729
784.97102	0.10704
783.04234	0.10679
781.11366	0.10654
779.18499	0.10630
777.25631	0.10609
775.32764	0.10585
773.39896	0.10543
771.47029	0.10493
769.54161	0.10449
767.61293	0.10416
765.68426	0.10385
763.75558	0.10344
761.82691	0.10298
759.89823	0.10254
757.96956	0.10204
756.04088	0.10147
754.11220	0.10085
752.18353	0.10017
750.25485	0.09941
748.32618	0.09863
746.39750	0.09789
744.46883	0.09704
742.54015	0.09604
740.61147	0.09512
738.68280	0.09453
736.75412	0.09431
734.82545	0.09433
732.89677	0.09441
730.96810	0.09445
729.03942	0.09450
727.11074	0.09462
725.18207	0.09472
723.25339	0.09479
721.32472	0.09494
719.39604	0.09516
717.46737	0.09546
715.53869	0.09588
713.61001	0.09632
711.68134	0.09667
709.75266	0.09694
707.82399	0.09707
705.89531	0.09695
703.96664	0.09668
702.03796	0.09639
700.10928	0.09601
698.18061	0.09549
696.25193	0.09490
694.32326	0.09427
692.39458	0.09364
690.46591	0.09308
688.53723	0.09262
686.60855	0.09224
684.67988	0.09183
682.75120	0.09131
680.82253	0.09072
678.89385	0.09012
676.96518	0.08949
675.03650	0.08881
673.10782	0.08814
671.17915	0.08742
669.25047	0.08654
667.32180	0.08565
665.39312	0.08492
663.46445	0.08416
661.53577	0.08330
659.60709	0.08239
657.67842	0.08149
655.74974	0.08064
653.82107	0.07989
651.89239	0.07921
649.96372	0.07854
648.03504	0.07778
646.10636	0.07683
644.17769	0.07571
642.24901	0.07460
640.32034	0.07357
638.39166	0.07258
636.46299	0.07153
634.53431	0.07032
632.60563	0.06878
630.67696	0.06650
628.74828	0.06299
626.81961	0.05858
624.89093	0.05421
622.96226	0.05069
621.03358	0.04842
619.10490	0.04714
617.17623	0.04627
615.24755	0.04542
613.31888	0.04440
611.39020	0.04340
609.46153	0.04285
607.53285	0.04293
605.60417	0.04339
603.67550	0.04400
601.74682	0.04471
599.81815	0.04547
597.88947	0.04624
595.96080	0.04696
594.03212	0.04746
592.10344	0.04771
590.17477	0.04778
588.24609	0.04775
586.31742	0.04766
584.38874	0.04748
582.46007	0.04712
580.53139	0.04663
578.60271	0.04614
576.67404	0.04572
574.74536	0.04529
572.81669	0.04465
570.88801	0.04384
568.95934	0.04315
567.03066	0.04267
565.10198	0.04230
563.17331	0.04207
561.24463	0.04197
559.31596	0.04180
557.38728	0.04150
555.45861	0.04115
553.52993	0.04091
551.60125	0.04080
549.67258	0.04072
547.74390	0.04052
545.81523	0.04026
543.88655	0.04005
541.95788	0.03993
540.02920	0.03979
538.10052	0.03964
536.17185	0.03949
534.24317	0.03928
532.31450	0.03898
530.38582	0.03868
528.45715	0.03843
526.52847	0.03821
524.59979	0.03792
522.67112	0.03756
520.74244	0.03709
518.81377	0.03646
516.88509	0.03577
514.95642	0.03525
513.02774	0.03499
511.09906	0.03484
509.17039	0.03466
507.24171	0.03441
505.31304	0.03409
503.38436	0.03371
501.45569	0.03328
499.52701	0.03277
497.59833	0.03222
495.66966	0.03172
493.74098	0.03129
491.81231	0.03078
489.88363	0.03014
487.95496	0.02939
486.02628	0.02869
484.09760	0.02811
482.16893	0.02760
480.24025	0.02704
478.31158	0.02648
476.38290	0.02596
474.45423	0.02545
472.52555	0.02500
470.59687	0.02462
468.66820	0.02423
466.73952	0.02382
464.81085	0.02352
462.88217	0.02339
460.95350	0.02326
459.02482	0.02306
457.09614	0.02297
455.16747	0.02300
453.23879	0.02300
451.31012	0.02295
449.38144	0.02288
447.45277	0.02274
445.52409	0.02251
443.59541	0.02224
441.66674	0.02204
439.73806	0.02186
437.80939	0.02152
435.88071	0.02099
433.95204	0.02043
432.02336	0.01987
430.09468	0.01921
428.16601	0.01852
426.23733	0.01791
424.30866	0.01737
422.37998	0.01682
420.45131	0.01619
418.52263	0.01544
416.59395	0.01462
414.66528	0.01384
412.73660	0.01309
410.80793	0.01239
408.87925	0.01181
406.95058	0.01132
405.02190	0.01073
403.09322	0.01005
401.16455	0.00941
399.23587	0.00880
397.30720	0.00819
395.37852	0.00770
393.44985	0.00732
391.52117	0.00695
389.59249	0.00646
387.66382	0.00587
385.73514	0.00543
383.80647	0.00521
381.87779	0.00498
379.94912	0.00460
378.02044	0.00421
376.09176	0.00386
374.16309	0.00351
372.23441	0.00311
370.30574	0.00273
368.37706	0.00238
