7496.76250	0.00117
7494.83382	0.00118
7492.90514	0.00119
7490.97647	0.00120
7489.04779	0.00121
7487.11912	0.00120
7485.19044	0.00119
7483.26177	0.00119
7481.33309	0.00120
7479.40441	0.00121
7477.47574	0.00121
7475.54706	0.00121
7473.61839	0.00121
7471.68971	0.00122
7469.76104	0.00123
7467.83236	0.00123
7465.90368	0.00123
7463.97501	0.00123
7462.04633	0.00124
7460.11766	0.00124
7458.18898	0.00124
7456.26031	0.00123
7454.33163	0.00124
7452.40295	0.00124
7450.47428	0.00125
7448.54560	0.00125
7446.61693	0.00125
7444.68825	0.00126
7442.75958	0.00128
7440.83090	0.00129
7438.90222	0.00130
7436.97355	0.00129
7435.04487	0.00128
7433.11620	0.00128
7431.18752	0.00130
7429.25885	0.00132
7427.33017	0.00133
7425.40149	0.00132
7423.47282	0.00131
7421.54414	0.00132
7419.61547	0.00134
7417.68679	0.00136
7415.75812	0.00136
7413.82944	0.00134
7411.90076	0.00134
7409.97209	0.00134
7408.04341	0.00134
7406.11474	0.00134
7404.18606	0.00134
7402.25739	0.00135
7400.32871	0.00135
7398.40003	0.00135
7396.47136	0.00136
7394.54268	0.00138
7392.61401	0.00138
7390.68533	0.00137
7388.75666	0.00135
7386.82798	0.00136
7384.89930	0.00138
7382.97063	0.00140
7381.04195	0.00139
7379.11328	0.00139
7377.18460	0.00139
7375.25593	0.00140
7373.32725	0.00141
7371.39857	0.00142
7369.46990	0.00141
7367.54122	0.00141
7365.61255	0.00140
7363.68387	0.00141
7361.75520	0.00141
7359.82652	0.00141
7357.89784	0.00141
7355.96917	0.00142
7354.04049	0.00142
7352.11182	0.00142
7350.18314	0.00142
7348.25447	0.00144
7346.32579	0.00146
7344.39711	0.00146
7342.46844	0.00146
7340.53976	0.00145
7338.61109	0.00146
7336.68241	0.00145
7334.75374	0.00145
7332.82506	0.00146
7330.89638	0.00148
7328.96771	0.00149
7327.03903	0.00148
7325.11036	0.00148
7323.18168	0.00150
7321.25301	0.00153
7319.32433	0.00154
7317.39565	0.00154
7315.46698	0.00155
7313.53830	0.00155
7311.60963	0.00154
7309.68095	0.00152
7307.75228	0.00152
7305.82360	0.00152
7303.89492	0.00153
7301.96625	0.00154
7300.03757	0.00154
7298.10890	0.00154
7296.18022	0.00154
7294.25155	0.00154
7292.32287	0.00155
7290.39419	0.00157
7288.46552	0.00159
7286.53684	0.00159
7284.60817	0.00159
7282.67949	0.00159
7280.75082	0.00158
7278.82214	0.00158
7276.89346	0.00158
7274.96479	0.00159
7273.03611	0.00160
7271.10744	0.00160
7269.17876	0.00160
7267.25009	0.00160
7265.32141	0.00159
7263.39273	0.00159
7261.46406	0.00161
7259.53538	0.00163
7257.60671	0.00164
7255.67803	0.00164
7253.74936	0.00162
7251.82068	0.00161
7249.89200	0.00162
7247.96333	0.00164
7246.03465	0.00165
7244.10598	0.00166
7242.17730	0.00165
7240.24863	0.00164
7238.31995	0.00166
7236.39127	0.00168
7234.46260	0.00168
7232.53392	0.00168
7230.60525	0.00169
7228.67657	0.00169
7226.74790	0.00169
7224.81922	0.00170
7222.89054	0.00172
7220.96187	0.00173
7219.03319	0.00172
7217.10452	0.00172
7215.17584	0.00172
7213.24717	0.00171
7211.31849	0.00170
7209.38981	0.00170
7207.46114	0.00170
7205.53246	0.00170
7203.60379	0.00169
7201.67511	0.00171
7199.74644	0.00174
7197.81776	0.00175
7195.88908	0.00175
7193.96041	0.00175
7192.03173	0.00175
7190.10306	0.00174
7188.17438	0.00174
7186.24571	0.00176
7184.31703	0.00177
7182.38835	0.00177
7180.45968	0.00178
7178.53100	0.00179
7176.60233	0.00179
7174.67365	0.00178
7172.74498	0.00179
7170.81630	0.00180
7168.88762	0.00180
7166.95895	0.00180
7165.03027	0.00180
7163.10160	0.00181
7161.17292	0.00180
7159.24425	0.00180
7157.31557	0.00181
7155.38689	0.00183
7153.45822	0.00185
7151.52954	0.00185
7149.60087	0.00185
7147.67219	0.00185
7145.74352	0.00186
7143.81484	0.00187
7141.88616	0.00188
7139.95749	0.00188
7138.02881	0.00187
7136.10014	0.00186
7134.17146	0.00187
7132.24279	0.00188
7130.31411	0.00189
7128.38543	0.00190
7126.45676	0.00190
7124.52808	0.00189
7122.59941	0.00187
7120.67073	0.00188
7118.74206	0.00190
7116.81338	0.00192
7114.88470	0.00192
7112.95603	0.00192
7111.02735	0.00193
7109.09868	0.00193
7107.17000	0.00194
7105.24133	0.00194
7103.31265	0.00195
7101.38397	0.00195
7099.45530	0.00195
7097.52662	0.00194
7095.59795	0.00194
7093.66927	0.00196
7091.74060	0.00196
7089.81192	0.00196
7087.88324	0.00196
7085.95457	0.00196
7084.02589	0.00196
7082.09722	0.00194
7080.16854	0.00194
7078.23987	0.00195
7076.31119	0.00197
7074.38251	0.00199
7072.45384	0.00200
7070.52516	0.00203
7068.59649	0.00204
7066.66781	0.00205
7064.73914	0.00204
7062.81046	0.00205
7060.88178	0.00206
7058.95311	0.00207
7057.02443	0.00206
7055.09576	0.00205
7053.16708	0.00205
7051.23841	0.00205
7049.30973	0.00206
7047.38105	0.00206
7045.45238	0.00207
7043.52370	0.00208
7041.59503	0.00210
7039.66635	0.00211
7037.73768	0.00211
7035.80900	0.00211
7033.88032	0.00212
7031.95165	0.00212
7030.02297	0.00212
7028.09430	0.00211
7026.16562	0.00211
7024.23695	0.00212
7022.30827	0.00212
7020.37959	0.00212
7018.45092	0.00212
7016.52224	0.00213
7014.59357	0.00214
7012.66489	0.00215
7010.73622	0.00215
7008.80754	0.00214
7006.87886	0.00214
7004.95019	0.00216
7003.02151	0.00217
7001.09284	0.00217
6999.16416	0.00217
6997.23549	0.00217
6995.30681	0.00218
6993.37813	0.00218
6991.44946	0.00218
6989.52078	0.00219
6987.59211	0.00220
6985.66343	0.00221
6983.73476	0.00221
6981.80608	0.00222
6979.87740	0.00223
6977.94873	0.00222
6976.02005	0.00222
6974.09138	0.00223
6972.16270	0.00223
6970.23403	0.00224
6968.30535	0.00224
6966.37667	0.00224
6964.44800	0.00225
6962.51932	0.00225
6960.59065	0.00225
6958.66197	0.00227
6956.73330	0.00228
6954.80462	0.00228
6952.87594	0.00227
6950.94727	0.00229
6949.01859	0.00232
6947.08992	0.00232
6945.16124	0.00232
6943.23257	0.00232
6941.30389	0.00233
6939.37521	0.00233
6937.44654	0.00233
6935.51786	0.00233
6933.58919	0.00234
6931.66051	0.00235
6929.73184	0.00235
6927.80316	0.00234
6925.87448	0.00234
6923.94581	0.00235
6922.01713	0.00236
6920.08846	0.00237
6918.15978	0.00238
6916.23111	0.00240
6914.30243	0.00240
6912.37375	0.00240
6910.44508	0.00241
6908.51640	0.00241
6906.58773	0.00240
6904.65905	0.00240
6902.73038	0.00241
6900.80170	0.00241
6898.87302	0.00242
6896.94435	0.00242
6895.01567	0.00242
6893.08700	0.00242
6891.15832	0.00244
6889.22965	0.00244
6887.30097	0.00245
6885.37229	0.00244
6883.44362	0.00244
6881.51494	0.00246
6879.58627	0.00249
6877.65759	0.00251
6875.72892	0.00250
6873.80024	0.00249
6871.87156	0.00249
6869.94289	0.00250
6868.01421	0.00252
6866.08554	0.00253
6864.15686	0.00252
6862.22819	0.00252
6860.29951	0.00253
6858.37083	0.00254
6856.44216	0.00253
6854.51348	0.00252
6852.58481	0.00251
6850.65613	0.00254
6848.72746	0.00256
6846.79878	0.00258
6844.87010	0.00260
6842.94143	0.00261
6841.01275	0.00261
6839.08408	0.00261
6837.15540	0.00263
6835.22673	0.00264
6833.29805	0.00263
6831.36937	0.00261
6829.44070	0.00260
6827.51202	0.00260
6825.58335	0.00262
6823.65467	0.00262
6821.72600	0.00262
6819.79732	0.00262
6817.86864	0.00264
6815.93997	0.00265
6814.01129	0.00265
6812.08262	0.00265
6810.15394	0.00265
6808.22527	0.00265
6806.29659	0.00265
6804.36791	0.00265
6802.43924	0.00266
6800.51056	0.00268
6798.58189	0.00269
6796.65321	0.00270
6794.72454	0.00270
6792.79586	0.00271
6790.86718	0.00271
6788.93851	0.00272
6787.00983	0.00273
6785.08116	0.00274
6783.15248	0.00275
6781.22381	0.00274
6779.29513	0.00274
6777.36645	0.00276
6775.43778	0.00278
6773.50910	0.00279
6771.58043	0.00279
6769.65175	0.00279
6767.72308	0.00279
6765.79440	0.00279
6763.86572	0.00280
6761.93705	0.00282
6760.00837	0.00283
6758.07970	0.00283
6756.15102	0.00283
6754.22235	0.00283
6752.29367	0.00283
6750.36499	0.00284
6748.43632	0.00285
6746.50764	0.00287
6744.57897	0.00287
6742.65029	0.00286
6740.72162	0.00287
6738.79294	0.00289
6736.86426	0.00290
6734.93559	0.00290
6733.00691	0.00291
6731.07824	0.00291
6729.14956	0.00291
6727.22089	0.00291
6725.29221	0.00290
6723.36353	0.00291
6721.43486	0.00293
6719.50618	0.00296
6717.57751	0.00296
6715.64883	0.00296
6713.72016	0.00296
6711.79148	0.00296
6709.86280	0.00297
6707.93413	0.00297
6706.00545	0.00297
6704.07678	0.00298
6702.14810	0.00300
6700.21943	0.00301
6698.29075	0.00301
6696.36207	0.00302
6694.43340	0.00304
6692.50472	0.00303
6690.57605	0.00302
6688.64737	0.00302
6686.71870	0.00305
6684.79002	0.00307
6682.86134	0.00308
6680.93267	0.00307
6679.00399	0.00306
6677.07532	0.00307
6675.14664	0.00307
6673.21797	0.00308
6671.28929	0.00308
6669.36061	0.00309
6667.43194	0.00308
6665.50326	0.00308
6663.57459	0.00310
6661.64591	0.00313
6659.71724	0.00315
6657.78856	0.00315
6655.85988	0.00315
6653.93121	0.00316
6652.00253	0.00316
6650.07386	0.00316
6648.14518	0.00319
6646.21651	0.00321
6644.28783	0.00320
6642.35915	0.00319
6640.43048	0.00319
6638.50180	0.00319
6636.57313	0.00321
6634.64445	0.00323
6632.71578	0.00323
6630.78710	0.00323
6628.85842	0.00323
6626.92975	0.00324
6625.00107	0.00324
6623.07240	0.00325
6621.14372	0.00325
6619.21505	0.00325
6617.28637	0.00327
6615.35769	0.00329
6613.42902	0.00330
6611.50034	0.00330
6609.57167	0.00330
6607.64299	0.00331
6605.71432	0.00333
6603.78564	0.00335
6601.85696	0.00335
6599.92829	0.00335
6597.99961	0.00334
6596.07094	0.00334
6594.14226	0.00334
6592.21359	0.00334
6590.28491	0.00336
6588.35623	0.00337
6586.42756	0.00337
6584.49888	0.00337
6582.57021	0.00338
6580.64153	0.00339
6578.71286	0.00341
6576.78418	0.00342
6574.85550	0.00341
6572.92683	0.00342
6570.99815	0.00343
6569.06948	0.00345
6567.14080	0.00346
6565.21213	0.00347
6563.28345	0.00349
6561.35477	0.00350
6559.42610	0.00350
6557.49742	0.00349
6555.56875	0.00348
6553.64007	0.00349
6551.71140	0.00351
6549.78272	0.00352
6547.85404	0.00353
6545.92537	0.00355
6543.99669	0.00357
6542.06802	0.00358
6540.13934	0.00358
6538.21067	0.00360
6536.28199	0.00361
6534.35331	0.00360
6532.42464	0.00358
6530.49596	0.00359
6528.56729	0.00360
6526.63861	0.00362
6524.70994	0.00362
6522.78126	0.00363
6520.85258	0.00364
6518.92391	0.00365
6516.99523	0.00366
6515.06656	0.00367
6513.13788	0.00368
6511.20921	0.00367
6509.28053	0.00366
6507.35185	0.00367
6505.42318	0.00369
6503.49450	0.00370
6501.56583	0.00371
6499.63715	0.00371
6497.70848	0.00373
6495.77980	0.00374
6493.85112	0.00373
6491.92245	0.00373
6489.99377	0.00374
6488.06510	0.00376
6486.13642	0.00378
6484.20775	0.00380
6482.27907	0.00380
6480.35039	0.00379
6478.42172	0.00379
6476.49304	0.00379
6474.56437	0.00381
6472.63569	0.00383
6470.70702	0.00385
6468.77834	0.00385
6466.84966	0.00383
6464.92099	0.00382
6462.99231	0.00382
6461.06364	0.00383
6459.13496	0.00384
6457.20629	0.00386
6455.27761	0.00387
6453.34893	0.00390
6451.42026	0.00393
6449.49158	0.00395
6447.56291	0.00395
6445.63423	0.00395
6443.70556	0.00395
6441.77688	0.00394
6439.84820	0.00395
6437.91953	0.00395
6435.99085	0.00397
6434.06218	0.00399
6432.13350	0.00400
6430.20483	0.00401
6428.27615	0.00402
6426.34747	0.00402
6424.41880	0.00403
6422.49012	0.00404
6420.56145	0.00404
6418.63277	0.00406
6416.70410	0.00408
6414.77542	0.00408
6412.84674	0.00408
6410.91807	0.00409
6408.98939	0.00409
6407.06072	0.00410
6405.13204	0.00413
6403.20337	0.00414
6401.27469	0.00414
6399.34601	0.00414
6397.41734	0.00416
6395.48866	0.00417
6393.55999	0.00418
6391.63131	0.00417
6389.70264	0.00416
6387.77396	0.00416
6385.84528	0.00417
6383.91661	0.00420
6381.98793	0.00422
6380.05926	0.00422
6378.13058	0.00421
6376.20191	0.00422
6374.27323	0.00425
6372.34455	0.00427
6370.41588	0.00428
6368.48720	0.00430
6366.55853	0.00431
6364.62985	0.00431
6362.70118	0.00430
6360.77250	0.00430
6358.84382	0.00431
6356.91515	0.00434
6354.98647	0.00436
6353.05780	0.00436
6351.12912	0.00437
6349.20045	0.00437
6347.27177	0.00438
6345.34309	0.00439
6343.41442	0.00441
6341.48574	0.00443
6339.55707	0.00443
6337.62839	0.00442
6335.69972	0.00442
6333.77104	0.00443
6331.84236	0.00445
6329.91369	0.00446
6327.98501	0.00446
6326.05634	0.00448
6324.12766	0.00448
6322.19899	0.00447
6320.27031	0.00447
6318.34163	0.00449
6316.41296	0.00451
6314.48428	0.00452
6312.55561	0.00453
6310.62693	0.00455
6308.69826	0.00458
6306.76958	0.00461
6304.84090	0.00462
6302.91223	0.00460
6300.98355	0.00459
6299.05488	0.00460
6297.12620	0.00463
6295.19753	0.00463
6293.26885	0.00463
6291.34017	0.00464
6289.41150	0.00467
6287.48282	0.00469
6285.55415	0.00470
6283.62547	0.00471
6281.69680	0.00472
6279.76812	0.00472
6277.83944	0.00472
6275.91077	0.00472
6273.98209	0.00472
6272.05342	0.00472
6270.12474	0.00474
6268.19607	0.00477
6266.26739	0.00478
6264.33871	0.00478
6262.41004	0.00480
6260.48136	0.00481
6258.55269	0.00481
6256.62401	0.00482
6254.69534	0.00483
6252.76666	0.00485
6250.83798	0.00486
6248.90931	0.00487
6246.98063	0.00488
6245.05196	0.00488
6243.12328	0.00487
6241.19461	0.00487
6239.26593	0.00486
6237.33725	0.00487
6235.40858	0.00490
6233.47990	0.00493
6231.55123	0.00494
6229.62255	0.00495
6227.69388	0.00496
6225.76520	0.00498
6223.83652	0.00500
6221.90785	0.00502
6219.97917	0.00503
6218.05050	0.00503
6216.12182	0.00504
6214.19315	0.00507
6212.26447	0.00509
6210.33579	0.00510
6208.40712	0.00510
6206.47844	0.00511
6204.54977	0.00512
6202.62109	0.00512
6200.69242	0.00512
6198.76374	0.00513
6196.83506	0.00515
6194.90639	0.00515
6192.97771	0.00516
6191.04904	0.00518
6189.12036	0.00519
6187.19169	0.00521
6185.26301	0.00523
6183.33433	0.00525
6181.40566	0.00526
6179.47698	0.00527
6177.54831	0.00529
6175.61963	0.00531
6173.69096	0.00532
6171.76228	0.00531
6169.83360	0.00531
6167.90493	0.00533
6165.97625	0.00534
6164.04758	0.00534
6162.11890	0.00534
6160.19023	0.00534
6158.26155	0.00534
6156.33287	0.00535
6154.40420	0.00536
6152.47552	0.00539
6150.54685	0.00542
6148.61817	0.00543
6146.68950	0.00544
6144.76082	0.00544
6142.83214	0.00544
6140.90347	0.00544
6138.97479	0.00545
6137.04612	0.00547
6135.11744	0.00549
6133.18877	0.00550
6131.26009	0.00551
6129.33141	0.00553
6127.40274	0.00555
6125.47406	0.00557
6123.54539	0.00558
6121.61671	0.00560
6119.68804	0.00560
6117.75936	0.00560
6115.83068	0.00560
6113.90201	0.00561
6111.97333	0.00563
6110.04466	0.00564
6108.11598	0.00566
6106.18731	0.00568
6104.25863	0.00569
6102.32995	0.00571
6100.40128	0.00571
6098.47260	0.00571
6096.54393	0.00572
6094.61525	0.00574
6092.68658	0.00577
6090.75790	0.00579
6088.82922	0.00581
6086.90055	0.00581
6084.97187	0.00581
6083.04320	0.00582
6081.11452	0.00584
6079.18585	0.00584
6077.25717	0.00586
6075.32849	0.00588
6073.39982	0.00590
6071.47114	0.00590
6069.54247	0.00590
6067.61379	0.00589
6065.68512	0.00590
6063.75644	0.00592
6061.82776	0.00596
6059.89909	0.00598
6057.97041	0.00598
6056.04174	0.00597
6054.11306	0.00597
6052.18439	0.00599
6050.25571	0.00602
6048.32703	0.00606
6046.39836	0.00607
6044.46968	0.00606
6042.54101	0.00606
6040.61233	0.00607
6038.68366	0.00610
6036.75498	0.00613
6034.82630	0.00614
6032.89763	0.00613
6030.96895	0.00613
6029.04028	0.00614
6027.11160	0.00617
6025.18293	0.00619
6023.25425	0.00620
6021.32557	0.00621
6019.39690	0.00622
6017.46822	0.00625
6015.53955	0.00627
6013.61087	0.00627
6011.68220	0.00627
6009.75352	0.00628
6007.82484	0.00628
6005.89617	0.00627
6003.96749	0.00627
6002.03882	0.00629
6000.11014	0.00633
5998.18147	0.00635
5996.25279	0.00636
5994.32411	0.00637
5992.39544	0.00638
5990.46676	0.00639
5988.53809	0.00640
5986.60941	0.00642
5984.68074	0.00646
5982.75206	0.00650
5980.82338	0.00652
5978.89471	0.00652
5976.96603	0.00652
5975.03736	0.00652
5973.10868	0.00653
5971.18001	0.00654
5969.25133	0.00657
5967.32265	0.00660
5965.39398	0.00662
5963.46530	0.00662
5961.53663	0.00663
5959.60795	0.00665
5957.67928	0.00665
5955.75060	0.00666
5953.82192	0.00668
5951.89325	0.00669
5949.96457	0.00668
5948.03590	0.00669
5946.10722	0.00671
5944.17855	0.00674
5942.24987	0.00676
5940.32119	0.00677
5938.39252	0.00677
5936.46384	0.00679
5934.53517	0.00681
5932.60649	0.00682
5930.67782	0.00684
5928.74914	0.00685
5926.82046	0.00684
5924.89179	0.00684
5922.96311	0.00685
5921.03444	0.00685
5919.10576	0.00686
5917.17709	0.00689
5915.24841	0.00693
5913.31973	0.00696
5911.39106	0.00697
5909.46238	0.00698
5907.53371	0.00701
5905.60503	0.00704
5903.67636	0.00706
5901.74768	0.00706
5899.81900	0.00706
5897.89033	0.00708
5895.96165	0.00710
5894.03298	0.00710
5892.10430	0.00711
5890.17563	0.00712
5888.24695	0.00713
5886.31827	0.00715
5884.38960	0.00718
5882.46092	0.00721
5880.53225	0.00722
5878.60357	0.00722
5876.67490	0.00724
5874.74622	0.00727
5872.81755	0.00731
5870.88887	0.00732
5868.96019	0.00731
5867.03152	0.00730
5865.10284	0.00732
5863.17417	0.00735
5861.24549	0.00735
5859.31682	0.00735
5857.38814	0.00736
5855.45946	0.00739
5853.53079	0.00742
5851.60211	0.00744
5849.67344	0.00744
5847.74476	0.00746
5845.81609	0.00749
5843.88741	0.00750
5841.95873	0.00750
5840.03006	0.00750
5838.10138	0.00752
5836.17271	0.00754
5834.24403	0.00755
5832.31536	0.00756
5830.38668	0.00758
5828.45800	0.00761
5826.52933	0.00761
5824.60065	0.00762
5822.67198	0.00764
5820.74330	0.00766
5818.81463	0.00768
5816.88595	0.00769
5814.95727	0.00769
5813.02860	0.00771
5811.09992	0.00776
5809.17125	0.00780
5807.24257	0.00780
5805.31390	0.00779
5803.38522	0.00780
5801.45654	0.00783
5799.52787	0.00785
5797.59919	0.00786
5795.67052	0.00787
5793.74184	0.00790
5791.81317	0.00791
5789.88449	0.00792
5787.95581	0.00792
5786.02714	0.00793
5784.09846	0.00794
5782.16979	0.00796
5780.24111	0.00799
5778.31244	0.00800
5776.38376	0.00802
5774.45508	0.00805
5772.52641	0.00807
5770.59773	0.00809
5768.66906	0.00811
5766.74038	0.00814
5764.81171	0.00814
5762.88303	0.00814
5760.95435	0.00815
5759.02568	0.00819
5757.09700	0.00822
5755.16833	0.00825
5753.23965	0.00827
5751.31098	0.00828
5749.38230	0.00828
5747.45362	0.00829
5745.52495	0.00831
5743.59627	0.00833
5741.66760	0.00833
5739.73892	0.00833
5737.81025	0.00835
5735.88157	0.00839
5733.95289	0.00842
5732.02422	0.00843
5730.09554	0.00844
5728.16687	0.00845
5726.23819	0.00847
5724.30952	0.00848
5722.38084	0.00849
5720.45216	0.00853
5718.52349	0.00855
5716.59481	0.00856
5714.66614	0.00857
5712.73746	0.00859
5710.80879	0.00862
5708.88011	0.00864
5706.95143	0.00866
5705.02276	0.00867
5703.09408	0.00867
5701.16541	0.00869
5699.23673	0.00872
5697.30806	0.00874
5695.37938	0.00875
5693.45070	0.00876
5691.52203	0.00876
5689.59335	0.00877
5687.66468	0.00879
5685.73600	0.00881
5683.80733	0.00883
5681.87865	0.00884
5679.94997	0.00885
5678.02130	0.00888
5676.09262	0.00891
5674.16395	0.00892
5672.23527	0.00892
5670.30660	0.00894
5668.37792	0.00896
5666.44924	0.00898
5664.52057	0.00900
5662.59189	0.00903
5660.66322	0.00907
5658.73454	0.00910
5656.80587	0.00911
5654.87719	0.00911
5652.94851	0.00911
5651.01984	0.00912
5649.09116	0.00915
5647.16249	0.00919
5645.23381	0.00921
5643.30514	0.00924
5641.37646	0.00926
5639.44778	0.00927
5637.51911	0.00928
5635.59043	0.00931
5633.66176	0.00932
5631.73308	0.00933
5629.80441	0.00934
5627.87573	0.00936
5625.94705	0.00936
5624.01838	0.00937
5622.08970	0.00938
5620.16103	0.00940
5618.23235	0.00942
5616.30368	0.00945
5614.37500	0.00949
5612.44632	0.00952
5610.51765	0.00952
5608.58897	0.00952
5606.66030	0.00954
5604.73162	0.00956
5602.80295	0.00957
5600.87427	0.00960
5598.94559	0.00964
5597.01692	0.00965
5595.08824	0.00965
5593.15957	0.00966
5591.23089	0.00969
5589.30222	0.00972
5587.37354	0.00976
5585.44486	0.00977
5583.51619	0.00978
5581.58751	0.00980
5579.65884	0.00983
5577.73016	0.00986
5575.80149	0.00989
5573.87281	0.00988
5571.94413	0.00988
5570.01546	0.00989
5568.08678	0.00992
5566.15811	0.00995
5564.22943	0.00998
5562.30076	0.01001
5560.37208	0.01002
5558.44340	0.01003
5556.51473	0.01005
5554.58605	0.01006
5552.65738	0.01006
5550.72870	0.01007
5548.80003	0.01009
5546.87135	0.01011
5544.94267	0.01014
5543.01400	0.01017
5541.08532	0.01019
5539.15665	0.01020
5537.22797	0.01022
5535.29930	0.01025
5533.37062	0.01026
5531.44194	0.01025
5529.51327	0.01027
5527.58459	0.01031
5525.65592	0.01036
5523.72724	0.01040
5521.79857	0.01043
5519.86989	0.01045
5517.94121	0.01046
5516.01254	0.01047
5514.08386	0.01049
5512.15519	0.01050
5510.22651	0.01052
5508.29784	0.01054
5506.36916	0.01056
5504.44048	0.01058
5502.51181	0.01061
5500.58313	0.01063
5498.65446	0.01063
5496.72578	0.01063
5494.79711	0.01065
5492.86843	0.01069
5490.93975	0.01073
5489.01108	0.01074
5487.08240	0.01075
5485.15373	0.01075
5483.22505	0.01076
5481.29638	0.01079
5479.36770	0.01082
5477.43902	0.01084
5475.51035	0.01086
5473.58167	0.01089
5471.65300	0.01091
5469.72432	0.01093
5467.79565	0.01093
5465.86697	0.01094
5463.93829	0.01094
5462.00962	0.01097
5460.08094	0.01101
5458.15227	0.01105
5456.22359	0.01107
5454.29492	0.01109
5452.36624	0.01112
5450.43756	0.01114
5448.50889	0.01118
5446.58021	0.01121
5444.65154	0.01122
5442.72286	0.01123
5440.79419	0.01126
5438.86551	0.01127
5436.93683	0.01128
5435.00816	0.01128
5433.07948	0.01129
5431.15081	0.01130
5429.22213	0.01132
5427.29346	0.01136
5425.36478	0.01140
5423.43610	0.01143
5421.50743	0.01146
5419.57875	0.01150
5417.65008	0.01152
5415.72140	0.01151
5413.79273	0.01151
5411.86405	0.01152
5409.93537	0.01153
5408.00670	0.01155
5406.07802	0.01159
5404.14935	0.01163
5402.22067	0.01167
5400.29200	0.01169
5398.36332	0.01170
5396.43464	0.01172
5394.50597	0.01175
5392.57729	0.01179
5390.64862	0.01180
5388.71994	0.01181
5386.79127	0.01182
5384.86259	0.01183
5382.93391	0.01186
5381.00524	0.01189
5379.07656	0.01190
5377.14789	0.01191
5375.21921	0.01193
5373.29054	0.01194
5371.36186	0.01196
5369.43318	0.01200
5367.50451	0.01203
5365.57583	0.01206
5363.64716	0.01210
5361.71848	0.01213
5359.78981	0.01216
5357.86113	0.01218
5355.93245	0.01220
5354.00378	0.01222
5352.07510	0.01222
5350.14643	0.01222
5348.21775	0.01224
5346.28908	0.01227
5344.36040	0.01231
5342.43172	0.01232
5340.50305	0.01230
5338.57437	0.01229
5336.64570	0.01232
5334.71702	0.01238
5332.78835	0.01243
5330.85967	0.01245
5328.93099	0.01247
5327.00232	0.01249
5325.07364	0.01252
5323.14497	0.01256
5321.21629	0.01259
5319.28762	0.01263
5317.35894	0.01265
5315.43026	0.01267
5313.50159	0.01268
5311.57291	0.01271
5309.64424	0.01272
5307.71556	0.01273
5305.78689	0.01275
5303.85821	0.01277
5301.92953	0.01281
5300.00086	0.01284
5298.07218	0.01286
5296.14351	0.01288
5294.21483	0.01290
5292.28616	0.01291
5290.35748	0.01294
5288.42880	0.01297
5286.50013	0.01299
5284.57145	0.01300
5282.64278	0.01301
5280.71410	0.01303
5278.78543	0.01307
5276.85675	0.01310
5274.92807	0.01313
5272.99940	0.01315
5271.07072	0.01318
5269.14205	0.01321
5267.21337	0.01322
5265.28470	0.01323
5263.35602	0.01325
5261.42734	0.01328
5259.49867	0.01331
5257.56999	0.01334
5255.64132	0.01337
5253.71264	0.01338
5251.78397	0.01339
5249.85529	0.01339
5247.92661	0.01341
5245.99794	0.01346
5244.06926	0.01349
5242.14059	0.01351
5240.21191	0.01353
5238.28324	0.01356
5236.35456	0.01359
5234.42588	0.01360
5232.49721	0.01360
5230.56853	0.01363
5228.63986	0.01366
5226.71118	0.01369
5224.78251	0.01372
5222.85383	0.01376
5220.92515	0.01379
5218.99648	0.01380
5217.06780	0.01383
5215.13913	0.01386
5213.21045	0.01389
5211.28178	0.01389
5209.35310	0.01389
5207.42442	0.01391
5205.49575	0.01395
5203.56707	0.01400
5201.63840	0.01404
5199.70972	0.01406
5197.78105	0.01407
5195.85237	0.01409
5193.92369	0.01411
5191.99502	0.01412
5190.06634	0.01415
5188.13767	0.01419
5186.20899	0.01421
5184.28032	0.01421
5182.35164	0.01422
5180.42296	0.01425
5178.49429	0.01428
5176.56561	0.01431
5174.63694	0.01432
5172.70826	0.01434
5170.77959	0.01436
5168.85091	0.01441
5166.92223	0.01444
5164.99356	0.01446
5163.06488	0.01448
5161.13621	0.01451
5159.20753	0.01455
5157.27886	0.01456
5155.35018	0.01456
5153.42150	0.01457
5151.49283	0.01460
5149.56415	0.01464
5147.63548	0.01469
5145.70680	0.01474
5143.77813	0.01476
5141.84945	0.01477
5139.92077	0.01478
5137.99210	0.01479
5136.06342	0.01482
5134.13475	0.01485
5132.20607	0.01487
5130.27740	0.01491
5128.34872	0.01493
5126.42004	0.01494
5124.49137	0.01496
5122.56269	0.01500
5120.63402	0.01503
5118.70534	0.01504
5116.77667	0.01506
5114.84799	0.01507
5112.91931	0.01508
5110.99064	0.01512
5109.06196	0.01516
5107.13329	0.01519
5105.20461	0.01521
5103.27594	0.01524
5101.34726	0.01527
5099.41858	0.01530
5097.48991	0.01532
5095.56123	0.01535
5093.63256	0.01538
5091.70388	0.01540
5089.77521	0.01543
5087.84653	0.01545
5085.91785	0.01547
5083.98918	0.01548
5082.06050	0.01550
5080.13183	0.01553
5078.20315	0.01555
5076.27448	0.01558
5074.34580	0.01561
5072.41712	0.01567
5070.48845	0.01572
5068.55977	0.01575
5066.63110	0.01576
5064.70242	0.01578
5062.77375	0.01581
5060.84507	0.01582
5058.91639	0.01583
5056.98772	0.01586
5055.05904	0.01589
5053.13037	0.01590
5051.20169	0.01591
5049.27302	0.01593
5047.34434	0.01596
5045.41566	0.01599
5043.48699	0.01602
5041.55831	0.01605
5039.62964	0.01609
5037.70096	0.01613
5035.77229	0.01616
5033.84361	0.01618
5031.91493	0.01621
5029.98626	0.01624
5028.05758	0.01627
5026.12891	0.01628
5024.20023	0.01631
5022.27156	0.01634
5020.34288	0.01637
5018.41420	0.01639
5016.48553	0.01642
5014.55685	0.01646
5012.62818	0.01648
5010.69950	0.01649
5008.77083	0.01652
5006.84215	0.01655
5004.91347	0.01657
5002.98480	0.01659
5001.05612	0.01661
4999.12745	0.01663
4997.19877	0.01667
4995.27010	0.01672
4993.34142	0.01675
4991.41274	0.01678
4989.48407	0.01681
4987.55539	0.01683
4985.62672	0.01683
4983.69804	0.01684
4981.76937	0.01687
4979.84069	0.01690
4977.91201	0.01694
4975.98334	0.01697
4974.05466	0.01700
4972.12599	0.01703
4970.19731	0.01706
4968.26864	0.01709
4966.33996	0.01711
4964.41128	0.01713
4962.48261	0.01715
4960.55393	0.01718
4958.62526	0.01721
4956.69658	0.01726
4954.76791	0.01729
4952.83923	0.01731
4950.91055	0.01733
4948.98188	0.01736
4947.05320	0.01737
4945.12453	0.01740
4943.19585	0.01743
4941.26718	0.01746
4939.33850	0.01748
4937.40982	0.01751
4935.48115	0.01756
4933.55247	0.01759
4931.62380	0.01763
4929.69512	0.01765
4927.76645	0.01767
4925.83777	0.01769
4923.90909	0.01773
4921.98042	0.01777
4920.05174	0.01778
4918.12307	0.01779
4916.19439	0.01781
4914.26572	0.01785
4912.33704	0.01791
4910.40836	0.01794
4908.47969	0.01796
4906.55101	0.01798
4904.62234	0.01799
4902.69366	0.01800
4900.76499	0.01802
4898.83631	0.01806
4896.90763	0.01811
4894.97896	0.01815
4893.05028	0.01818
4891.12161	0.01820
4889.19293	0.01823
4887.26426	0.01824
4885.33558	0.01826
4883.40690	0.01830
4881.47823	0.01835
4879.54955	0.01839
4877.62088	0.01841
4875.69220	0.01843
4873.76353	0.01847
4871.83485	0.01851
4869.90617	0.01853
4867.97750	0.01854
4866.04882	0.01857
4864.12015	0.01860
4862.19147	0.01862
4860.26280	0.01862
4858.33412	0.01863
4856.40544	0.01865
4854.47677	0.01870
4852.54809	0.01876
4850.61942	0.01882
4848.69074	0.01887
4846.76207	0.01890
4844.83339	0.01889
4842.90471	0.01887
4840.97604	0.01891
4839.04736	0.01898
4837.11869	0.01905
4835.19001	0.01909
4833.26134	0.01912
4831.33266	0.01915
4829.40398	0.01916
4827.47531	0.01916
4825.54663	0.01918
4823.61796	0.01921
4821.68928	0.01925
4819.76061	0.01928
4817.83193	0.01932
4815.90325	0.01935
4813.97458	0.01937
4812.04590	0.01940
4810.11723	0.01944
4808.18855	0.01947
4806.25988	0.01950
4804.33120	0.01954
4802.40252	0.01959
4800.47385	0.01962
4798.54517	0.01965
4796.61650	0.01967
4794.68782	0.01970
4792.75915	0.01973
4790.83047	0.01975
4788.90179	0.01979
4786.97312	0.01984
4785.04444	0.01989
4783.11577	0.01993
4781.18709	0.01994
4779.25842	0.01994
4777.32974	0.01995
4775.40106	0.01999
4773.47239	0.02003
4771.54371	0.02007
4769.61504	0.02011
4767.68636	0.02014
4765.75769	0.02018
4763.82901	0.02021
4761.90033	0.02024
4759.97166	0.02026
4758.04298	0.02029
4756.11431	0.02031
4754.18563	0.02034
4752.25696	0.02037
4750.32828	0.02040
4748.39960	0.02044
4746.47093	0.02045
4744.54225	0.02046
4742.61358	0.02050
4740.68490	0.02058
4738.75623	0.02063
4736.82755	0.02066
4734.89887	0.02070
4732.97020	0.02073
4731.04152	0.02074
4729.11285	0.02075
4727.18417	0.02076
4725.25550	0.02081
4723.32682	0.02087
4721.39814	0.02091
4719.46947	0.02094
4717.54079	0.02098
4715.61212	0.02103
4713.68344	0.02107
4711.75477	0.02110
4709.82609	0.02111
4707.89741	0.02112
4705.96874	0.02116
4704.04006	0.02122
4702.11139	0.02126
4700.18271	0.02128
4698.25404	0.02131
4696.32536	0.02134
4694.39668	0.02138
4692.46801	0.02141
4690.53933	0.02142
4688.61066	0.02144
4686.68198	0.02148
4684.75331	0.02154
4682.82463	0.02158
4680.89595	0.02161
4678.96728	0.02165
4677.03860	0.02167
4675.10993	0.02170
4673.18125	0.02173
4671.25258	0.02176
4669.32390	0.02181
4667.39522	0.02187
4665.46655	0.02191
4663.53787	0.02194
4661.60920	0.02195
4659.68052	0.02196
4657.75185	0.02201
4655.82317	0.02206
4653.89449	0.02210
4651.96582	0.02214
4650.03714	0.02218
4648.10847	0.02221
4646.17979	0.02224
4644.25112	0.02228
4642.32244	0.02232
4640.39376	0.02234
4638.46509	0.02238
4636.53641	0.02242
4634.60774	0.02246
4632.67906	0.02248
4630.75039	0.02250
4628.82171	0.02254
4626.89303	0.02258
4624.96436	0.02262
4623.03568	0.02265
4621.10701	0.02269
4619.17833	0.02274
4617.24966	0.02280
4615.32098	0.02285
4613.39230	0.02289
4611.46363	0.02291
4609.53495	0.02294
4607.60628	0.02300
4605.67760	0.02305
4603.74893	0.02309
4601.82025	0.02311
4599.89157	0.02314
4597.96290	0.02318
4596.03422	0.02322
4594.10555	0.02325
4592.17687	0.02328
4590.24820	0.02332
4588.31952	0.02336
4586.39084	0.02339
4584.46217	0.02343
4582.53349	0.02348
4580.60482	0.02352
4578.67614	0.02355
4576.74747	0.02357
4574.81879	0.02359
4572.89011	0.02364
4570.96144	0.02368
4569.03276	0.02373
4567.10409	0.02378
4565.17541	0.02383
4563.24674	0.02386
4561.31806	0.02390
4559.38938	0.02394
4557.46071	0.02397
4555.53203	0.02399
4553.60336	0.02401
4551.67468	0.02405
4549.74601	0.02410
4547.81733	0.02416
4545.88865	0.02422
4543.95998	0.02427
4542.03130	0.02431
4540.10263	0.02433
4538.17395	0.02435
4536.24528	0.02440
4534.31660	0.02447
4532.38792	0.02452
4530.45925	0.02455
4528.53057	0.02458
4526.60190	0.02460
4524.67322	0.02463
4522.74455	0.02467
4520.81587	0.02472
4518.88719	0.02477
4516.95852	0.02482
4515.02984	0.02487
4513.10117	0.02490
4511.17249	0.02495
4509.24382	0.02500
4507.31514	0.02505
4505.38646	0.02509
4503.45779	0.02511
4501.52911	0.02514
4499.60044	0.02518
4497.67176	0.02522
4495.74309	0.02527
4493.81441	0.02533
4491.88573	0.02540
4489.95706	0.02544
4488.02838	0.02546
4486.09971	0.02548
4484.17103	0.02552
4482.24236	0.02556
4480.31368	0.02562
4478.38500	0.02569
4476.45633	0.02574
4474.52765	0.02577
4472.59898	0.02581
4470.67030	0.02585
4468.74163	0.02588
4466.81295	0.02590
4464.88427	0.02593
4462.95560	0.02599
4461.02692	0.02604
4459.09825	0.02608
4457.16957	0.02613
4455.24090	0.02618
4453.31222	0.02622
4451.38354	0.02626
4449.45487	0.02632
4447.52619	0.02637
4445.59752	0.02641
4443.66884	0.02646
4441.74017	0.02652
4439.81149	0.02658
4437.88281	0.02661
4435.95414	0.02664
4434.02546	0.02667
4432.09679	0.02671
4430.16811	0.02676
4428.23944	0.02682
4426.31076	0.02688
4424.38208	0.02694
4422.45341	0.02699
4420.52473	0.02704
4418.59606	0.02708
4416.66738	0.02713
4414.73871	0.02717
4412.81003	0.02719
4410.88135	0.02721
4408.95268	0.02726
4407.02400	0.02735
4405.09533	0.02743
4403.16665	0.02746
4401.23798	0.02747
4399.30930	0.02749
4397.38062	0.02755
4395.45195	0.02762
4393.52327	0.02767
4391.59460	0.02771
4389.66592	0.02778
4387.73725	0.02786
4385.80857	0.02792
4383.87989	0.02793
4381.95122	0.02795
4380.02254	0.02799
4378.09387	0.02805
4376.16519	0.02810
4374.23652	0.02814
4372.30784	0.02820
4370.37916	0.02830
4368.45049	0.02837
4366.52181	0.02841
4364.59314	0.02843
4362.66446	0.02846
4360.73579	0.02851
4358.80711	0.02856
4356.87843	0.02860
4354.94976	0.02866
4353.02108	0.02873
4351.09241	0.02881
4349.16373	0.02887
4347.23506	0.02891
4345.30638	0.02894
4343.37770	0.02898
4341.44903	0.02904
4339.52035	0.02908
4337.59168	0.02913
4335.66300	0.02919
4333.73433	0.02923
4331.80565	0.02927
4329.87697	0.02933
4327.94830	0.02939
4326.01962	0.02945
4324.09095	0.02950
4322.16227	0.02955
4320.23360	0.02960
4318.30492	0.02965
4316.37624	0.02971
4314.44757	0.02977
4312.51889	0.02982
4310.59022	0.02987
4308.66154	0.02992
4306.73287	0.02999
4304.80419	0.03006
4302.87551	0.03011
4300.94684	0.03015
4299.01816	0.03016
4297.08949	0.03020
4295.16081	0.03029
4293.23214	0.03039
4291.30346	0.03046
4289.37478	0.03050
4287.44611	0.03055
4285.51743	0.03060
4283.58876	0.03064
4281.66008	0.03068
4279.73141	0.03074
4277.80273	0.03081
4275.87405	0.03087
4273.94538	0.03092
4272.01670	0.03096
4270.08803	0.03102
4268.15935	0.03110
4266.23068	0.03117
4264.30200	0.03123
4262.37332	0.03130
4260.44465	0.03136
4258.51597	0.03139
4256.58730	0.03142
4254.65862	0.03146
4252.72995	0.03151
4250.80127	0.03158
4248.87259	0.03165
4246.94392	0.03172
4245.01524	0.03178
4243.08657	0.03186
4241.15789	0.03191
4239.22922	0.03195
4237.30054	0.03200
4235.37186	0.03205
4233.44319	0.03211
4231.51451	0.03217
4229.58584	0.03224
4227.65716	0.03231
4225.72849	0.03237
4223.79981	0.03244
4221.87113	0.03251
4219.94246	0.03258
4218.01378	0.03263
4216.08511	0.03268
4214.15643	0.03275
4212.22776	0.03282
4210.29908	0.03288
4208.37040	0.03292
4206.44173	0.03294
4204.51305	0.03299
4202.58438	0.03306
4200.65570	0.03313
4198.72703	0.03319
4196.79835	0.03324
4194.86968	0.03330
4192.94100	0.03336
4191.01232	0.03342
4189.08365	0.03349
4187.15497	0.03356
4185.22630	0.03363
4183.29762	0.03370
4181.36895	0.03379
4179.44027	0.03389
4177.51159	0.03396
4175.58292	0.03401
4173.65424	0.03406
4171.72557	0.03412
4169.79689	0.03418
4167.86822	0.03424
4165.93954	0.03431
4164.01086	0.03437
4162.08219	0.03442
4160.15351	0.03446
4158.22484	0.03453
4156.29616	0.03461
4154.36749	0.03467
4152.43881	0.03473
4150.51013	0.03479
4148.58146	0.03484
4146.65278	0.03491
4144.72411	0.03498
4142.79543	0.03504
4140.86676	0.03512
4138.93808	0.03520
4137.00940	0.03527
4135.08073	0.03532
4133.15205	0.03537
4131.22338	0.03543
4129.29470	0.03551
4127.36603	0.03559
4125.43735	0.03565
4123.50867	0.03569
4121.58000	0.03574
4119.65132	0.03580
4117.72265	0.03588
4115.79397	0.03597
4113.86530	0.03604
4111.93662	0.03608
4110.00794	0.03615
4108.07927	0.03624
4106.15059	0.03634
4104.22192	0.03641
4102.29324	0.03645
4100.36457	0.03651
4098.43589	0.03660
4096.50721	0.03668
4094.57854	0.03673
4092.64986	0.03679
4090.72119	0.03686
4088.79251	0.03692
4086.86384	0.03696
4084.93516	0.03702
4083.00648	0.03709
4081.07781	0.03718
4079.14913	0.03725
4077.22046	0.03732
4075.29178	0.03740
4073.36311	0.03751
4071.43443	0.03762
4069.50575	0.03772
4067.57708	0.03779
4065.64840	0.03784
4063.71973	0.03788
4061.79105	0.03793
4059.86238	0.03799
4057.93370	0.03808
4056.00502	0.03816
4054.07635	0.03821
4052.14767	0.03827
4050.21900	0.03837
4048.29032	0.03847
4046.36165	0.03854
4044.43297	0.03860
4042.50429	0.03869
4040.57562	0.03877
4038.64694	0.03884
4036.71827	0.03891
4034.78959	0.03898
4032.86092	0.03906
4030.93224	0.03914
4029.00356	0.03921
4027.07489	0.03927
4025.14621	0.03933
4023.21754	0.03939
4021.28886	0.03946
4019.36019	0.03952
4017.43151	0.03959
4015.50283	0.03967
4013.57416	0.03975
4011.64548	0.03985
4009.71681	0.03995
4007.78813	0.04002
4005.85946	0.04007
4003.93078	0.04016
4002.00210	0.04024
4000.07343	0.04029
3998.14475	0.04035
3996.21608	0.04042
3994.28740	0.04049
3992.35873	0.04058
3990.43005	0.04067
3988.50137	0.04076
3986.57270	0.04085
3984.64402	0.04094
3982.71535	0.04101
3980.78667	0.04106
3978.85800	0.04112
3976.92932	0.04119
3975.00064	0.04127
3973.07197	0.04136
3971.14329	0.04145
3969.21462	0.04152
3967.28594	0.04158
3965.35727	0.04167
3963.42859	0.04176
3961.49991	0.04184
3959.57124	0.04192
3957.64256	0.04200
3955.71389	0.04207
3953.78521	0.04213
3951.85654	0.04220
3949.92786	0.04228
3947.99918	0.04235
3946.07051	0.04241
3944.14183	0.04251
3942.21316	0.04263
3940.28448	0.04274
3938.35581	0.04283
3936.42713	0.04290
3934.49845	0.04294
3932.56978	0.04298
3930.64110	0.04306
3928.71243	0.04317
3926.78375	0.04327
3924.85508	0.04335
3922.92640	0.04343
3920.99772	0.04347
3919.06905	0.04349
3917.14037	0.04356
3915.21170	0.04370
3913.28302	0.04384
3911.35435	0.04395
3909.42567	0.04402
3907.49699	0.04403
3905.56832	0.04402
3903.63964	0.04403
3901.71097	0.04409
3899.78229	0.04421
3897.85362	0.04437
3895.92494	0.04452
3893.99626	0.04458
3892.06759	0.04463
3890.13891	0.04472
3888.21024	0.04478
3886.28156	0.04480
3884.35289	0.04489
3882.42421	0.04502
3880.49553	0.04512
3878.56686	0.04524
3876.63818	0.04535
3874.70951	0.04540
3872.78083	0.04542
3870.85216	0.04545
3868.92348	0.04556
3866.99480	0.04569
3865.06613	0.04578
3863.13745	0.04586
3861.20878	0.04598
3859.28010	0.04609
3857.35143	0.04608
3855.42275	0.04596
3853.49407	0.04594
3851.56540	0.04619
3849.63672	0.04650
3847.70805	0.04669
3845.77937	0.04675
3843.85070	0.04676
3841.92202	0.04678
3839.99334	0.04683
3838.06467	0.04692
3836.13599	0.04705
3834.20732	0.04717
3832.27864	0.04727
3830.34997	0.04739
3828.42129	0.04752
3826.49261	0.04763
3824.56394	0.04768
3822.63526	0.04764
3820.70659	0.04765
3818.77791	0.04779
3816.84924	0.04792
3814.92056	0.04807
3812.99188	0.04824
3811.06321	0.04835
3809.13453	0.04838
3807.20586	0.04844
3805.27718	0.04854
3803.34851	0.04860
3801.41983	0.04865
3799.49115	0.04879
3797.56248	0.04894
3795.63380	0.04907
3793.70513	0.04922
3791.77645	0.04934
3789.84778	0.04942
3787.91910	0.04948
3785.99042	0.04954
3784.06175	0.04963
3782.13307	0.04971
3780.20440	0.04979
3778.27572	0.04991
3776.34705	0.05004
3774.41837	0.05012
3772.48969	0.05014
3770.56102	0.05018
3768.63234	0.05028
3766.70367	0.05041
3764.77499	0.05054
3762.84632	0.05067
3760.91764	0.05073
3758.98896	0.05076
3757.06029	0.05081
3755.13161	0.05084
3753.20294	0.05082
3751.27426	0.05080
3749.34559	0.05089
3747.41691	0.05098
3745.48823	0.05098
3743.55956	0.05113
3741.63088	0.05144
3739.70221	0.05159
3737.77353	0.05155
3735.84486	0.05155
3733.91618	0.05168
3731.98750	0.05191
3730.05883	0.05212
3728.13015	0.05222
3726.20148	0.05226
3724.27280	0.05235
3722.34413	0.05248
3720.41545	0.05260
3718.48677	0.05271
3716.55810	0.05281
3714.62942	0.05284
3712.70075	0.05281
3710.77207	0.05286
3708.84340	0.05305
3706.91472	0.05327
3704.98604	0.05341
3703.05737	0.05348
3701.12869	0.05356
3699.20002	0.05369
3697.27134	0.05381
3695.34267	0.05386
3693.41399	0.05387
3691.48531	0.05387
3689.55664	0.05393
3687.62796	0.05409
3685.69929	0.05428
3683.77061	0.05443
3681.84194	0.05452
3679.91326	0.05455
3677.98458	0.05452
3676.05591	0.05449
3674.12723	0.05459
3672.19856	0.05470
3670.26988	0.05477
3668.34121	0.05495
3666.41253	0.05518
3664.48385	0.05535
3662.55518	0.05545
3660.62650	0.05553
3658.69783	0.05554
3656.76915	0.05554
3654.84048	0.05560
3652.91180	0.05561
3650.98312	0.05549
3649.05445	0.05542
3647.12577	0.05556
3645.19710	0.05584
3643.26842	0.05609
3641.33975	0.05627
3639.41107	0.05640
3637.48239	0.05649
3635.55372	0.05655
3633.62504	0.05657
3631.69637	0.05650
3629.76769	0.05643
3627.83902	0.05656
3625.91034	0.05683
3623.98166	0.05700
3622.05299	0.05701
3620.12431	0.05698
3618.19564	0.05705
3616.26696	0.05718
3614.33829	0.05724
3612.40961	0.05727
3610.48093	0.05732
3608.55226	0.05740
3606.62358	0.05753
3604.69491	0.05768
3602.76623	0.05777
3600.83756	0.05783
3598.90888	0.05788
3596.98020	0.05793
3595.05153	0.05800
3593.12285	0.05810
3591.19418	0.05816
3589.26550	0.05816
3587.33683	0.05822
3585.40815	0.05837
3583.47947	0.05853
3581.55080	0.05863
3579.62212	0.05871
3577.69345	0.05881
3575.76477	0.05892
3573.83610	0.05901
3571.90742	0.05904
3569.97874	0.05900
3568.05007	0.05898
3566.12139	0.05906
3564.19272	0.05924
3562.26404	0.05938
3560.33537	0.05948
3558.40669	0.05956
3556.47801	0.05964
3554.54934	0.05969
3552.62066	0.05974
3550.69199	0.05980
3548.76331	0.05986
3546.83464	0.05992
3544.90596	0.06002
3542.97728	0.06013
3541.04861	0.06022
3539.11993	0.06027
3537.19126	0.06032
3535.26258	0.06036
3533.33391	0.06041
3531.40523	0.06044
3529.47655	0.06045
3527.54788	0.06046
3525.61920	0.06050
3523.69053	0.06059
3521.76185	0.06068
3519.83318	0.06074
3517.90450	0.06077
3515.97582	0.06079
3514.04715	0.06082
3512.11847	0.06089
3510.18980	0.06096
3508.26112	0.06100
3506.33245	0.06100
3504.40377	0.06099
3502.47509	0.06101
3500.54642	0.06105
3498.61774	0.06109
3496.68907	0.06115
3494.76039	0.06121
3492.83172	0.06122
3490.90304	0.06121
3488.97436	0.06122
3487.04569	0.06126
3485.11701	0.06130
3483.18834	0.06134
3481.25966	0.06138
3479.33099	0.06143
3477.40231	0.06151
3475.47363	0.06159
3473.54496	0.06167
3471.61628	0.06176
3469.68761	0.06186
3467.75893	0.06196
3465.83026	0.06207
3463.90158	0.06217
3461.97290	0.06227
3460.04423	0.06237
3458.11555	0.06248
3456.18688	0.06259
3454.25820	0.06270
3452.32953	0.06282
3450.40085	0.06289
3448.47217	0.06294
3446.54350	0.06301
3444.61482	0.06313
3442.68615	0.06326
3440.75747	0.06339
3438.82880	0.06353
3436.90012	0.06366
3434.97144	0.06381
3433.04277	0.06400
3431.11409	0.06422
3429.18542	0.06446
3427.25674	0.06471
3425.32807	0.06492
3423.39939	0.06508
3421.47071	0.06523
3419.54204	0.06540
3417.61336	0.06557
3415.68469	0.06573
3413.75601	0.06589
3411.82734	0.06605
3409.89866	0.06619
3407.96998	0.06633
3406.04131	0.06647
3404.11263	0.06659
3402.18396	0.06670
3400.25528	0.06682
3398.32661	0.06696
3396.39793	0.06713
3394.46925	0.06729
3392.54058	0.06742
3390.61190	0.06754
3388.68323	0.06766
3386.75455	0.06778
3384.82588	0.06793
3382.89720	0.06809
3380.96852	0.06823
3379.03985	0.06836
3377.11117	0.06848
3375.18250	0.06861
3373.25382	0.06872
3371.32515	0.06882
3369.39647	0.06893
3367.46779	0.06905
3365.53912	0.06919
3363.61044	0.06936
3361.68177	0.06949
3359.75309	0.06959
3357.82442	0.06967
3355.89574	0.06979
3353.96706	0.06994
3352.03839	0.07007
3350.10971	0.07019
3348.18104	0.07031
3346.25236	0.07043
3344.32369	0.07055
3342.39501	0.07067
3340.46633	0.07078
3338.53766	0.07089
3336.60898	0.07104
3334.68031	0.07121
3332.75163	0.07134
3330.82296	0.07144
3328.89428	0.07155
3326.96560	0.07167
3325.03693	0.07179
3323.10825	0.07192
3321.17958	0.07207
3319.25090	0.07222
3317.32223	0.07233
3315.39355	0.07245
3313.46487	0.07257
3311.53620	0.07269
3309.60752	0.07281
3307.67885	0.07294
3305.75017	0.07309
3303.82150	0.07324
3301.89282	0.07339
3299.96414	0.07352
3298.03547	0.07365
3296.10679	0.07376
3294.17812	0.07386
3292.24944	0.07399
3290.32077	0.07414
3288.39209	0.07429
3286.46341	0.07445
3284.53474	0.07461
3282.60606	0.07475
3280.67739	0.07486
3278.74871	0.07498
3276.82004	0.07512
3274.89136	0.07527
3272.96268	0.07539
3271.03401	0.07551
3269.10533	0.07564
3267.17666	0.07578
3265.24798	0.07592
3263.31931	0.07606
3261.39063	0.07618
3259.46195	0.07632
3257.53328	0.07646
3255.60460	0.07660
3253.67593	0.07673
3251.74725	0.07687
3249.81858	0.07702
3247.88990	0.07716
3245.96122	0.07730
3244.03255	0.07744
3242.10387	0.07759
3240.17520	0.07771
3238.24652	0.07783
3236.31785	0.07797
3234.38917	0.07814
3232.46049	0.07831
3230.53182	0.07845
3228.60314	0.07856
3226.67447	0.07866
3224.74579	0.07879
3222.81712	0.07894
3220.88844	0.07906
3218.95976	0.07918
3217.03109	0.07932
3215.10241	0.07947
3213.17374	0.07962
3211.24506	0.07974
3209.31639	0.07986
3207.38771	0.07998
3205.45903	0.08012
3203.53036	0.08028
3201.60168	0.08045
3199.67301	0.08061
3197.74433	0.08078
3195.81566	0.08095
3193.88698	0.08109
3191.95830	0.08123
3190.02963	0.08136
3188.10095	0.08148
3186.17228	0.08161
3184.24360	0.08176
3182.31493	0.08192
3180.38625	0.08207
3178.45757	0.08218
3176.52890	0.08230
3174.60022	0.08245
3172.67155	0.08261
3170.74287	0.08275
3168.81420	0.08289
3166.88552	0.08307
3164.95684	0.08327
3163.02817	0.08343
3161.09949	0.08355
3159.17082	0.08366
3157.24214	0.08379
3155.31347	0.08395
3153.38479	0.08413
3151.45611	0.08428
3149.52744	0.08440
3147.59876	0.08451
3145.67009	0.08464
3143.74141	0.08477
3141.81274	0.08491
3139.88406	0.08508
3137.95538	0.08524
3136.02671	0.08540
3134.09803	0.08553
3132.16936	0.08564
3130.24068	0.08578
3128.31201	0.08596
3126.38333	0.08612
3124.45465	0.08624
3122.52598	0.08635
3120.59730	0.08647
3118.66863	0.08661
3116.73995	0.08676
3114.81128	0.08692
3112.88260	0.08706
3110.95392	0.08720
3109.02525	0.08735
3107.09657	0.08749
3105.16790	0.08764
3103.23922	0.08779
3101.31055	0.08795
3099.38187	0.08811
3097.45319	0.08824
3095.52452	0.08836
3093.59584	0.08848
3091.66717	0.08861
3089.73849	0.08875
3087.80982	0.08890
3085.88114	0.08904
3083.95246	0.08919
3082.02379	0.08932
3080.09511	0.08945
3078.16644	0.08958
3076.23776	0.08974
3074.30909	0.08989
3072.38041	0.09003
3070.45173	0.09017
3068.52306	0.09029
3066.59438	0.09039
3064.66571	0.09052
3062.73703	0.09069
3060.80836	0.09086
3058.87968	0.09103
3056.95100	0.09118
3055.02233	0.09134
3053.09365	0.09149
3051.16498	0.09162
3049.23630	0.09175
3047.30763	0.09190
3045.37895	0.09205
3043.45027	0.09218
3041.52160	0.09229
3039.59292	0.09241
3037.66425	0.09255
3035.73557	0.09269
3033.80690	0.09279
3031.87822	0.09289
3029.94954	0.09306
3028.02087	0.09326
3026.09219	0.09343
3024.16352	0.09357
3022.23484	0.09369
3020.30617	0.09381
3018.37749	0.09394
3016.44881	0.09407
3014.52014	0.09421
3012.59146	0.09435
3010.66279	0.09449
3008.73411	0.09462
3006.80544	0.09478
3004.87676	0.09497
3002.94808	0.09514
3001.01941	0.09528
2999.09073	0.09539
2997.16206	0.09549
2995.23338	0.09560
2993.30471	0.09574
2991.37603	0.09590
2989.44735	0.09602
2987.51868	0.09612
2985.59000	0.09622
2983.66133	0.09630
2981.73265	0.09639
2979.80398	0.09650
2977.87530	0.09659
2975.94662	0.09662
2974.01795	0.09660
2972.08927	0.09657
2970.16060	0.09656
2968.23192	0.09656
2966.30325	0.09659
2964.37457	0.09662
2962.44589	0.09668
2960.51722	0.09679
2958.58854	0.09693
2956.65987	0.09710
2954.73119	0.09728
2952.80252	0.09746
2950.87384	0.09760
2948.94516	0.09774
2947.01649	0.09790
2945.08781	0.09804
2943.15914	0.09814
2941.23046	0.09818
2939.30179	0.09815
2937.37311	0.09810
2935.44443	0.09806
2933.51576	0.09802
2931.58708	0.09797
2929.65841	0.09793
2927.72973	0.09787
2925.80106	0.09779
2923.87238	0.09776
2921.94370	0.09779
2920.01503	0.09786
2918.08635	0.09800
2916.15768	0.09828
2914.22900	0.09871
2912.30033	0.09920
2910.37165	0.09965
2908.44297	0.10005
2906.51430	0.10038
2904.58562	0.10065
2902.65695	0.10088
2900.72827	0.10108
2898.79960	0.10127
2896.87092	0.10148
2894.94224	0.10172
2893.01357	0.10195
2891.08489	0.10213
2889.15622	0.10228
2887.22754	0.10245
2885.29887	0.10266
2883.37019	0.10286
2881.44151	0.10301
2879.51284	0.10316
2877.58416	0.10332
2875.65549	0.10348
2873.72681	0.10361
2871.79814	0.10373
2869.86946	0.10385
2867.94078	0.10398
2866.01211	0.10407
2864.08343	0.10415
2862.15476	0.10421
2860.22608	0.10423
2858.29741	0.10422
2856.36873	0.10419
2854.44005	0.10416
2852.51138	0.10413
2850.58270	0.10421
2848.65403	0.10448
2846.72535	0.10491
2844.79668	0.10539
2842.86800	0.10581
2840.93932	0.10615
2839.01065	0.10645
2837.08197	0.10672
2835.15330	0.10694
2833.22462	0.10715
2831.29595	0.10737
2829.36727	0.10758
2827.43859	0.10777
2825.50992	0.10796
2823.58124	0.10812
2821.65257	0.10826
2819.72389	0.10842
2817.79522	0.10860
2815.86654	0.10878
2813.93786	0.10895
2812.00919	0.10910
2810.08051	0.10923
2808.15184	0.10937
2806.22316	0.10956
2804.29449	0.10975
2802.36581	0.10992
2800.43713	0.11007
2798.50846	0.11020
2796.57978	0.11035
2794.65111	0.11052
2792.72243	0.11068
2790.79376	0.11084
2788.86508	0.11099
2786.93640	0.11114
2785.00773	0.11130
2783.07905	0.11146
2781.15038	0.11165
2779.22170	0.11182
2777.29303	0.11197
2775.36435	0.11211
2773.43567	0.11225
2771.50700	0.11239
2769.57832	0.11255
2767.64965	0.11271
2765.72097	0.11286
2763.79230	0.11299
2761.86362	0.11312
2759.93494	0.11327
2758.00627	0.11340
2756.07759	0.11356
2754.14892	0.11375
2752.22024	0.11394
2750.29157	0.11411
2748.36289	0.11426
2746.43421	0.11439
2744.50554	0.11449
2742.57686	0.11461
2740.64819	0.11478
2738.71951	0.11496
2736.79084	0.11511
2734.86216	0.11526
2732.93348	0.11542
2731.00481	0.11560
2729.07613	0.11576
2727.14746	0.11591
2725.21878	0.11605
2723.29011	0.11618
2721.36143	0.11632
2719.43275	0.11647
2717.50408	0.11664
2715.57540	0.11679
2713.64673	0.11691
2711.71805	0.11705
2709.78938	0.11721
2707.86070	0.11735
2705.93202	0.11748
2704.00335	0.11761
2702.07467	0.11776
2700.14600	0.11791
2698.21732	0.11808
2696.28865	0.11826
2694.35997	0.11842
2692.43129	0.11856
2690.50262	0.11868
2688.57394	0.11880
2686.64527	0.11891
2684.71659	0.11904
2682.78792	0.11920
2680.85924	0.11937
2678.93056	0.11951
2677.00189	0.11964
2675.07321	0.11980
2673.14454	0.11997
2671.21586	0.12014
2669.28719	0.12031
2667.35851	0.12047
2665.42983	0.12061
2663.50116	0.12076
2661.57248	0.12089
2659.64381	0.12102
2657.71513	0.12114
2655.78646	0.12127
2653.85778	0.12144
2651.92910	0.12161
2650.00043	0.12175
2648.07175	0.12192
2646.14308	0.12212
2644.21440	0.12230
2642.28573	0.12245
2640.35705	0.12258
2638.42837	0.12272
2636.49970	0.12288
2634.57102	0.12305
2632.64235	0.12320
2630.71367	0.12334
2628.78500	0.12349
2626.85632	0.12365
2624.92764	0.12383
2622.99897	0.12403
2621.07029	0.12424
2619.14162	0.12442
2617.21294	0.12453
2615.28427	0.12463
2613.35559	0.12477
2611.42691	0.12494
2609.49824	0.12513
2607.56956	0.12531
2605.64089	0.12546
2603.71221	0.12561
2601.78354	0.12576
2599.85486	0.12590
2597.92618	0.12605
2595.99751	0.12622
2594.06883	0.12641
2592.14016	0.12657
2590.21148	0.12669
2588.28281	0.12684
2586.35413	0.12702
2584.42545	0.12719
2582.49678	0.12734
2580.56810	0.12749
2578.63943	0.12766
2576.71075	0.12782
2574.78208	0.12797
2572.85340	0.12811
2570.92472	0.12826
2568.99605	0.12838
2567.06737	0.12849
2565.13870	0.12862
2563.21002	0.12879
2561.28135	0.12897
2559.35267	0.12913
2557.42399	0.12928
2555.49532	0.12945
2553.56664	0.12959
2551.63797	0.12975
2549.70929	0.12991
2547.78062	0.13007
2545.85194	0.13022
2543.92326	0.13040
2541.99459	0.13057
2540.06591	0.13071
2538.13724	0.13084
2536.20856	0.13098
2534.27989	0.13113
2532.35121	0.13131
2530.42253	0.13150
2528.49386	0.13168
2526.56518	0.13183
2524.63651	0.13197
2522.70783	0.13213
2520.77916	0.13231
2518.85048	0.13244
2516.92181	0.13254
2514.99313	0.13269
2513.06445	0.13287
2511.13578	0.13304
2509.20710	0.13320
2507.27843	0.13336
2505.34975	0.13353
2503.42108	0.13371
2501.49240	0.13389
2499.56372	0.13407
2497.63505	0.13425
2495.70637	0.13439
2493.77770	0.13452
2491.84902	0.13469
2489.92035	0.13486
2487.99167	0.13500
2486.06299	0.13516
2484.13432	0.13537
2482.20564	0.13560
2480.27697	0.13579
2478.34829	0.13594
2476.41962	0.13609
2474.49094	0.13623
2472.56226	0.13636
2470.63359	0.13652
2468.70491	0.13671
2466.77624	0.13689
2464.84756	0.13706
2462.91889	0.13722
2460.99021	0.13740
2459.06153	0.13757
2457.13286	0.13773
2455.20418	0.13787
2453.27551	0.13803
2451.34683	0.13825
2449.41816	0.13845
2447.48948	0.13859
2445.56080	0.13873
2443.63213	0.13890
2441.70345	0.13905
2439.77478	0.13919
2437.84610	0.13934
2435.91743	0.13948
2433.98875	0.13963
2432.06007	0.13982
2430.13140	0.14003
2428.20272	0.14023
2426.27405	0.14040
2424.34537	0.14053
2422.41670	0.14068
2420.48802	0.14089
2418.55934	0.14107
2416.63067	0.14118
2414.70199	0.14129
2412.77332	0.14147
2410.84464	0.14165
2408.91597	0.14182
2406.98729	0.14197
2405.05861	0.14212
2403.12994	0.14225
2401.20126	0.14240
2399.27259	0.14258
2397.34391	0.14280
2395.41524	0.14296
2393.48656	0.14307
2391.55788	0.14320
2389.62921	0.14336
2387.70053	0.14354
2385.77186	0.14372
2383.84318	0.14385
2381.91451	0.14394
2379.98583	0.14401
2378.05715	0.14410
2376.12848	0.14418
2374.19980	0.14422
2372.27113	0.14422
2370.34245	0.14424
2368.41378	0.14430
2366.48510	0.14439
2364.55642	0.14446
2362.62775	0.14454
2360.69907	0.14469
2358.77040	0.14492
2356.84172	0.14518
2354.91305	0.14545
2352.98437	0.14577
2351.05569	0.14610
2349.12702	0.14634
2347.19834	0.14645
2345.26967	0.14647
2343.34099	0.14651
2341.41232	0.14660
2339.48364	0.14673
2337.55496	0.14688
2335.62629	0.14704
2333.69761	0.14722
2331.76894	0.14741
2329.84026	0.14762
2327.91159	0.14783
2325.98291	0.14805
2324.05423	0.14827
2322.12556	0.14848
2320.19688	0.14870
2318.26821	0.14895
2316.33953	0.14923
2314.41086	0.14946
2312.48218	0.14966
2310.55350	0.14984
2308.62483	0.15002
2306.69615	0.15022
2304.76748	0.15040
2302.83880	0.15057
2300.91013	0.15074
2298.98145	0.15093
2297.05277	0.15111
2295.12410	0.15126
2293.19542	0.15141
2291.26675	0.15157
2289.33807	0.15174
2287.40940	0.15193
2285.48072	0.15209
2283.55204	0.15223
2281.62337	0.15239
2279.69469	0.15257
2277.76602	0.15276
2275.83734	0.15293
2273.90867	0.15308
2271.97999	0.15321
2270.05131	0.15335
2268.12264	0.15353
2266.19396	0.15372
2264.26529	0.15389
2262.33661	0.15403
2260.40794	0.15417
2258.47926	0.15435
2256.55058	0.15456
2254.62191	0.15473
2252.69323	0.15487
2250.76456	0.15503
2248.83588	0.15520
2246.90721	0.15537
2244.97853	0.15554
2243.04985	0.15571
2241.12118	0.15586
2239.19250	0.15602
2237.26383	0.15617
2235.33515	0.15632
2233.40648	0.15650
2231.47780	0.15667
2229.54912	0.15680
2227.62045	0.15692
2225.69177	0.15709
2223.76310	0.15732
2221.83442	0.15752
2219.90575	0.15765
2217.97707	0.15776
2216.04839	0.15789
2214.11972	0.15806
2212.19104	0.15824
2210.26237	0.15842
2208.33369	0.15858
2206.40502	0.15872
2204.47634	0.15888
2202.54766	0.15906
2200.61899	0.15925
2198.69031	0.15943
2196.76164	0.15961
2194.83296	0.15976
2192.90429	0.15988
2190.97561	0.16000
2189.04693	0.16015
2187.11826	0.16034
2185.18958	0.16053
2183.26091	0.16068
2181.33223	0.16082
2179.40356	0.16095
2177.47488	0.16114
2175.54620	0.16135
2173.61753	0.16151
2171.68885	0.16162
2169.76018	0.16176
2167.83150	0.16196
2165.90283	0.16215
2163.97415	0.16234
2162.04547	0.16252
2160.11680	0.16268
2158.18812	0.16281
2156.25945	0.16293
2154.33077	0.16309
2152.40210	0.16332
2150.47342	0.16351
2148.54474	0.16364
2146.61607	0.16378
2144.68739	0.16396
2142.75872	0.16412
2140.83004	0.16425
2138.90137	0.16441
2136.97269	0.16459
2135.04401	0.16478
2133.11534	0.16496
2131.18666	0.16515
2129.25799	0.16532
2127.32931	0.16545
2125.40064	0.16558
2123.47196	0.16574
2121.54328	0.16594
2119.61461	0.16611
2117.68593	0.16626
2115.75726	0.16641
2113.82858	0.16658
2111.89991	0.16678
2109.97123	0.16700
2108.04255	0.16720
2106.11388	0.16735
2104.18520	0.16748
2102.25653	0.16763
2100.32785	0.16781
2098.39918	0.16799
2096.47050	0.16813
2094.54182	0.16828
2092.61315	0.16846
2090.68447	0.16864
2088.75580	0.16879
2086.82712	0.16896
2084.89845	0.16913
2082.96977	0.16929
2081.04109	0.16944
2079.11242	0.16960
2077.18374	0.16975
2075.25507	0.16992
2073.32639	0.17009
2071.39772	0.17024
2069.46904	0.17042
2067.54036	0.17060
2065.61169	0.17074
2063.68301	0.17088
2061.75434	0.17104
2059.82566	0.17123
2057.89699	0.17144
2055.96831	0.17163
2054.03963	0.17177
2052.11096	0.17191
2050.18228	0.17210
2048.25361	0.17230
2046.32493	0.17243
2044.39626	0.17254
2042.46758	0.17269
2040.53890	0.17288
2038.61023	0.17308
2036.68155	0.17332
2034.75288	0.17353
2032.82420	0.17367
2030.89553	0.17378
2028.96685	0.17393
2027.03817	0.17412
2025.10950	0.17430
2023.18082	0.17446
2021.25215	0.17462
2019.32347	0.17480
2017.39480	0.17497
2015.46612	0.17512
2013.53744	0.17525
2011.60877	0.17541
2009.68009	0.17560
2007.75142	0.17581
2005.82274	0.17601
2003.89407	0.17615
2001.96539	0.17627
2000.03671	0.17639
1998.10804	0.17654
1996.17936	0.17668
1994.25069	0.17678
1992.32201	0.17687
1990.39334	0.17705
1988.46466	0.17729
1986.53598	0.17751
1984.60731	0.17768
1982.67863	0.17781
1980.74996	0.17792
1978.82128	0.17801
1976.89261	0.17814
1974.96393	0.17829
1973.03525	0.17843
1971.10658	0.17858
1969.17790	0.17869
1967.24923	0.17880
1965.32055	0.17897
1963.39188	0.17915
1961.46320	0.17934
1959.53452	0.17951
1957.60585	0.17967
1955.67717	0.17981
1953.74850	0.17997
1951.81982	0.18012
1949.89115	0.18026
1947.96247	0.18044
1946.03379	0.18065
1944.10512	0.18080
1942.17644	0.18092
1940.24777	0.18111
1938.31909	0.18135
1936.39042	0.18158
1934.46174	0.18175
1932.53306	0.18185
1930.60439	0.18192
1928.67571	0.18204
1926.74704	0.18221
1924.81836	0.18236
1922.88969	0.18247
1920.96101	0.18256
1919.03233	0.18261
1917.10366	0.18277
1915.17498	0.18309
1913.24631	0.18334
1911.31763	0.18346
1909.38896	0.18360
1907.46028	0.18381
1905.53160	0.18402
1903.60293	0.18420
1901.67425	0.18438
1899.74558	0.18454
1897.81690	0.18465
1895.88823	0.18473
1893.95955	0.18486
1892.03087	0.18500
1890.10220	0.18515
1888.17352	0.18535
1886.24485	0.18555
1884.31617	0.18573
1882.38750	0.18589
1880.45882	0.18606
1878.53014	0.18623
1876.60147	0.18639
1874.67279	0.18652
1872.74412	0.18661
1870.81544	0.18662
1868.88677	0.18669
1866.95809	0.18699
1865.02941	0.18734
1863.10074	0.18755
1861.17206	0.18765
1859.24339	0.18779
1857.31471	0.18802
1855.38604	0.18826
1853.45736	0.18843
1851.52868	0.18852
1849.60001	0.18856
1847.67133	0.18856
1845.74266	0.18854
1843.81398	0.18870
1841.88531	0.18910
1839.95663	0.18947
1838.02795	0.18964
1836.09928	0.18978
1834.17060	0.18993
1832.24193	0.18996
1830.31325	0.18998
1828.38458	0.19015
1826.45590	0.19035
1824.52722	0.19052
1822.59855	0.19075
1820.66987	0.19101
1818.74120	0.19119
1816.81252	0.19135
1814.88385	0.19149
1812.95517	0.19158
1811.02649	0.19165
1809.09782	0.19182
1807.16914	0.19204
1805.24047	0.19216
1803.31179	0.19216
1801.38312	0.19217
1799.45444	0.19236
1797.52576	0.19262
1795.59709	0.19269
1793.66841	0.19256
1791.73974	0.19261
1789.81106	0.19297
1787.88239	0.19327
1785.95371	0.19334
1784.02503	0.19339
1782.09636	0.19348
1780.16768	0.19363
1778.23901	0.19385
1776.31033	0.19395
1774.38166	0.19379
1772.45298	0.19368
1770.52430	0.19385
1768.59563	0.19412
1766.66695	0.19437
1764.73828	0.19450
1762.80960	0.19452
1760.88093	0.19464
1758.95225	0.19483
1757.02357	0.19494
1755.09490	0.19494
1753.16622	0.19472
1751.23755	0.19445
1749.30887	0.19447
1747.38020	0.19469
1745.45152	0.19481
1743.52284	0.19478
1741.59417	0.19470
1739.66549	0.19469
1737.73682	0.19464
1735.80814	0.19436
1733.87947	0.19427
1731.95079	0.19471
1730.02211	0.19524
1728.09344	0.19560
1726.16476	0.19583
1724.23609	0.19598
1722.30741	0.19607
1720.37874	0.19590
1718.45006	0.19561
1716.52138	0.19564
1714.59271	0.19609
1712.66403	0.19661
1710.73536	0.19692
1708.80668	0.19697
1706.87801	0.19686
1704.94933	0.19673
1703.02065	0.19642
1701.09198	0.19600
1699.16330	0.19604
1697.23463	0.19642
1695.30595	0.19681
1693.37728	0.19725
1691.44860	0.19748
1689.51992	0.19746
1687.59125	0.19726
1685.66257	0.19689
1683.73390	0.19681
1681.80522	0.19722
1679.87655	0.19763
1677.94787	0.19769
1676.01919	0.19756
1674.09052	0.19753
1672.16184	0.19752
1670.23317	0.19747
1668.30449	0.19765
1666.37582	0.19794
1664.44714	0.19800
1662.51846	0.19803
1660.58979	0.19827
1658.66111	0.19842
1656.73244	0.19808
1654.80376	0.19737
1652.87509	0.19713
1650.94641	0.19761
1649.01773	0.19796
1647.08906	0.19798
1645.16038	0.19823
1643.23171	0.19864
1641.30303	0.19888
1639.37436	0.19881
1637.44568	0.19842
1635.51700	0.19820
1633.58833	0.19856
1631.65965	0.19902
1629.73098	0.19910
1627.80230	0.19896
1625.87363	0.19874
1623.94495	0.19845
1622.01627	0.19825
1620.08760	0.19819
1618.15892	0.19827
1616.23025	0.19878
1614.30157	0.19962
1612.37290	0.20025
1610.44422	0.20056
1608.51554	0.20083
1606.58687	0.20110
1604.65819	0.20132
1602.72952	0.20151
1600.80084	0.20176
1598.87217	0.20200
1596.94349	0.20213
1595.01481	0.20222
1593.08614	0.20237
1591.15746	0.20260
1589.22879	0.20281
1587.30011	0.20301
1585.37144	0.20318
1583.44276	0.20332
1581.51408	0.20346
1579.58541	0.20349
1577.65673	0.20337
1575.72806	0.20343
1573.79938	0.20373
1571.87071	0.20383
1569.94203	0.20379
1568.01335	0.20400
1566.08468	0.20431
1564.15600	0.20439
1562.22733	0.20403
1560.29865	0.20345
1558.36998	0.20342
1556.44130	0.20409
1554.51262	0.20476
1552.58395	0.20513
1550.65527	0.20531
1548.72660	0.20543
1546.79792	0.20546
1544.86925	0.20527
1542.94057	0.20494
1541.01189	0.20473
1539.08322	0.20500
1537.15454	0.20556
1535.22587	0.20580
1533.29719	0.20583
1531.36852	0.20603
1529.43984	0.20617
1527.51116	0.20610
1525.58249	0.20596
1523.65381	0.20566
1521.72514	0.20533
1519.79646	0.20540
1517.86779	0.20577
1515.93911	0.20620
1514.01043	0.20655
1512.08176	0.20659
1510.15308	0.20631
1508.22441	0.20598
1506.29573	0.20601
1504.36706	0.20657
1502.43838	0.20705
1500.50970	0.20706
1498.58103	0.20692
1496.65235	0.20699
1494.72368	0.20715
1492.79500	0.20702
1490.86633	0.20662
1488.93765	0.20643
1487.00897	0.20664
1485.08030	0.20692
1483.15162	0.20697
1481.22295	0.20684
1479.29427	0.20657
1477.36560	0.20610
1475.43692	0.20555
1473.50824	0.20506
1471.57957	0.20481
1469.65089	0.20477
1467.72222	0.20459
1465.79354	0.20424
1463.86487	0.20404
1461.93619	0.20389
1460.00751	0.20336
1458.07884	0.20261
1456.15016	0.20245
1454.22149	0.20293
1452.29281	0.20332
1450.36414	0.20331
1448.43546	0.20324
1446.50678	0.20339
1444.57811	0.20364
1442.64943	0.20384
1440.72076	0.20387
1438.79208	0.20359
1436.86341	0.20340
1434.93473	0.20377
1433.00605	0.20429
1431.07738	0.20451
1429.14870	0.20468
1427.22003	0.20492
1425.29135	0.20506
1423.36268	0.20503
1421.43400	0.20479
1419.50532	0.20450
1417.57665	0.20457
1415.64797	0.20495
1413.71930	0.20521
1411.79062	0.20527
1409.86195	0.20526
1407.93327	0.20523
1406.00459	0.20516
1404.07592	0.20515
1402.14724	0.20512
1400.21857	0.20494
1398.28989	0.20470
1396.36122	0.20449
1394.43254	0.20444
1392.50386	0.20458
1390.57519	0.20455
1388.64651	0.20417
1386.71784	0.20383
1384.78916	0.20376
1382.86049	0.20387
1380.93181	0.20399
1379.00313	0.20399
1377.07446	0.20386
1375.14578	0.20377
1373.21711	0.20381
1371.28843	0.20386
1369.35976	0.20383
1367.43108	0.20385
1365.50240	0.20387
1363.57373	0.20379
1361.64505	0.20371
1359.71638	0.20379
1357.78770	0.20392
1355.85903	0.20401
1353.93035	0.20412
1352.00167	0.20425
1350.07300	0.20433
1348.14432	0.20437
1346.21565	0.20443
1344.28697	0.20449
1342.35830	0.20441
1340.42962	0.20419
1338.50094	0.20407
1336.57227	0.20414
1334.64359	0.20422
1332.71492	0.20417
1330.78624	0.20404
1328.85757	0.20390
1326.92889	0.20373
1325.00021	0.20353
1323.07154	0.20337
1321.14286	0.20321
1319.21419	0.20298
1317.28551	0.20277
1315.35684	0.20263
1313.42816	0.20252
1311.49948	0.20238
1309.57081	0.20214
1307.64213	0.20187
1305.71346	0.20164
1303.78478	0.20139
1301.85611	0.20112
1299.92743	0.20089
1297.99875	0.20074
1296.07008	0.20059
1294.14140	0.20042
1292.21273	0.20026
1290.28405	0.20009
1288.35538	0.19984
1286.42670	0.19963
1284.49802	0.19949
1282.56935	0.19932
1280.64067	0.19905
1278.71200	0.19869
1276.78332	0.19834
1274.85465	0.19795
1272.92597	0.19742
1270.99729	0.19674
1269.06862	0.19590
1267.13994	0.19496
1265.21127	0.19410
1263.28259	0.19351
1261.35392	0.19325
1259.42524	0.19331
1257.49656	0.19352
1255.56789	0.19367
1253.63921	0.19367
1251.71054	0.19352
1249.78186	0.19329
1247.85319	0.19302
1245.92451	0.19272
1243.99583	0.19235
1242.06716	0.19192
1240.13848	0.19147
1238.20981	0.19100
1236.28113	0.19048
1234.35246	0.18988
1232.42378	0.18927
1230.49510	0.18869
1228.56643	0.18816
1226.63775	0.18767
1224.70908	0.18720
1222.78040	0.18672
1220.85173	0.18623
1218.92305	0.18571
1216.99437	0.18516
1215.06570	0.18458
1213.13702	0.18402
1211.20835	0.18352
1209.27967	0.18298
1207.35100	0.18235
1205.42232	0.18173
1203.49364	0.18114
1201.56497	0.18053
1199.63629	0.17989
1197.70762	0.17930
1195.77894	0.17872
1193.85027	0.17808
1191.92159	0.17743
1189.99291	0.17677
1188.06424	0.17606
1186.13556	0.17534
1184.20689	0.17454
1182.27821	0.17369
1180.34954	0.17285
1178.42086	0.17203
1176.49218	0.17121
1174.56351	0.17039
1172.63483	0.16954
1170.70616	0.16864
1168.77748	0.16769
1166.84881	0.16676
1164.92013	0.16595
1162.99145	0.16518
1161.06278	0.16438
1159.13410	0.16357
1157.20543	0.16272
1155.27675	0.16188
1153.34808	0.16111
1151.41940	0.16036
1149.49072	0.15958
1147.56205	0.15874
1145.63337	0.15787
1143.70470	0.15699
1141.77602	0.15607
1139.84735	0.15509
1137.91867	0.15398
1135.98999	0.15275
1134.06132	0.15142
1132.13264	0.14992
1130.20397	0.14812
1128.27529	0.14606
1126.34662	0.14378
1124.41794	0.14137
1122.48926	0.13894
1120.56059	0.13656
1118.63191	0.13426
1116.70324	0.13216
1114.77456	0.13034
1112.84589	0.12877
1110.91721	0.12742
1108.98853	0.12638
1107.05986	0.12564
1105.13118	0.12520
1103.20251	0.12502
1101.27383	0.12509
1099.34516	0.12544
1097.41648	0.12602
1095.48780	0.12679
1093.55913	0.12769
1091.63045	0.12860
1089.70178	0.12944
1087.77310	0.13019
1085.84443	0.13086
1083.91575	0.13139
1081.98707	0.13177
1080.05840	0.13203
1078.12972	0.13221
1076.20105	0.13232
1074.27237	0.13241
1072.34370	0.13253
1070.41502	0.13266
1068.48634	0.13279
1066.55767	0.13296
1064.62899	0.13313
1062.70032	0.13331
1060.77164	0.13352
1058.84297	0.13376
1056.91429	0.13403
1054.98561	0.13435
1053.05694	0.13470
1051.12826	0.13504
1049.19959	0.13538
1047.27091	0.13572
1045.34224	0.13609
1043.41356	0.13650
1041.48488	0.13689
1039.55621	0.13722
1037.62753	0.13760
1035.69886	0.13804
1033.77018	0.13846
1031.84151	0.13881
1029.91283	0.13916
1027.98415	0.13950
1026.05548	0.13980
1024.12680	0.14009
1022.19813	0.14048
1020.26945	0.14091
1018.34078	0.14129
1016.41210	0.14167
1014.48342	0.14216
1012.55475	0.14275
1010.62607	0.14335
1008.69740	0.14394
1006.76872	0.14453
1004.84005	0.14504
1002.91137	0.14548
1000.98269	0.14588
999.05402	0.14623
997.12534	0.14650
995.19667	0.14667
993.26799	0.14678
991.33932	0.14687
989.41064	0.14690
987.48196	0.14688
985.55329	0.14685
983.62461	0.14685
981.69594	0.14684
979.76726	0.14678
977.83859	0.14667
975.90991	0.14652
973.98123	0.14632
972.05256	0.14614
970.12388	0.14601
968.19521	0.14585
966.26653	0.14571
964.33786	0.14557
962.40918	0.14536
960.48050	0.14508
958.55183	0.14487
956.62315	0.14477
954.69448	0.14472
952.76580	0.14459
950.83713	0.14437
948.90845	0.14418
946.97977	0.14401
945.05110	0.14379
943.12242	0.14349
941.19375	0.14311
939.26507	0.14269
937.33640	0.14226
935.40772	0.14180
933.47904	0.14129
931.55037	0.14080
929.62169	0.14034
927.69302	0.13987
925.76434	0.13936
923.83567	0.13882
921.90699	0.13821
919.97831	0.13754
918.04964	0.13686
916.12096	0.13616
914.19229	0.13540
912.26361	0.13463
910.33494	0.13391
908.40626	0.13324
906.47758	0.13259
904.54891	0.13198
902.62023	0.13137
900.69156	0.13076
898.76288	0.13019
896.83421	0.12967
894.90553	0.12919
892.97685	0.12871
891.04818	0.12822
889.11950	0.12773
887.19083	0.12726
885.26215	0.12686
883.33348	0.12653
881.40480	0.12617
879.47612	0.12582
877.54745	0.12550
875.61877	0.12517
873.69010	0.12484
871.76142	0.12457
869.83275	0.12440
867.90407	0.12429
865.97539	0.12416
864.04672	0.12399
862.11804	0.12387
860.18937	0.12380
858.26069	0.12370
856.33202	0.12351
854.40334	0.12330
852.47466	0.12310
850.54599	0.12285
848.61731	0.12257
846.68864	0.12230
844.75996	0.12208
842.83129	0.12190
840.90261	0.12166
838.97394	0.12126
837.04526	0.12066
835.11658	0.11994
833.18791	0.11919
831.25923	0.11836
829.33056	0.11735
827.40188	0.11628
825.47321	0.11532
823.54453	0.11441
821.61585	0.11357
819.68718	0.11288
817.75850	0.11234
815.82983	0.11188
813.90115	0.11147
811.97248	0.11115
810.04380	0.11089
808.11512	0.11073
806.18645	0.11068
804.25777	0.11068
802.32910	0.11056
800.40042	0.11022
798.47175	0.10965
796.54307	0.10903
794.61439	0.10853
792.68572	0.10818
790.75704	0.10790
788.82837	0.10758
786.89969	0.10729
784.97102	0.10709
783.04234	0.10683
781.11366	0.10648
779.18499	0.10616
777.25631	0.10589
775.32764	0.10564
773.39896	0.10536
771.47029	0.10500
769.54161	0.10456
767.61293	0.10410
765.68426	0.10368
763.75558	0.10325
761.82691	0.10282
759.89823	0.10233
757.96956	0.10183
756.04088	0.10136
754.11220	0.10083
752.18353	0.10018
750.25485	0.09945
748.32618	0.09870
746.39750	0.09790
744.46883	0.09703
742.54015	0.09611
740.61147	0.09524
738.68280	0.09464
736.75412	0.09439
734.82545	0.09435
732.89677	0.09434
730.96810	0.09432
729.03942	0.09443
727.11074	0.09465
725.18207	0.09483
723.25339	0.09491
721.32472	0.09499
719.39604	0.09514
717.46737	0.09542
715.53869	0.09584
713.61001	0.09631
711.68134	0.09676
709.75266	0.09702
707.82399	0.09699
705.89531	0.09685
703.96664	0.09674
702.03796	0.09656
700.10928	0.09614
698.18061	0.09551
696.25193	0.09486
694.32326	0.09430
692.39458	0.09380
690.46591	0.09335
688.53723	0.09291
686.60855	0.09241
684.67988	0.09187
682.75120	0.09131
680.82253	0.09070
678.89385	0.09012
676.96518	0.08959
675.03650	0.08898
673.10782	0.08824
671.17915	0.08738
669.25047	0.08646
667.32180	0.08562
665.39312	0.08499
663.46445	0.08435
661.53577	0.08353
659.60709	0.08257
657.67842	0.08162
655.74974	0.08074
653.82107	0.07993
651.89239	0.07910
649.96372	0.07825
648.03504	0.07744
646.10636	0.07664
644.17769	0.07573
642.24901	0.07471
640.32034	0.07368
638.39166	0.07264
636.46299	0.07159
634.53431	0.07050
632.60563	0.06902
630.67696	0.06669
628.74828	0.06325
626.81961	0.05883
624.89093	0.05428
622.96226	0.05060
621.03358	0.04826
619.10490	0.04706
617.17623	0.04629
615.24755	0.04549
613.31888	0.04444
611.39020	0.04329
609.46153	0.04259
607.53285	0.04264
605.60417	0.04312
603.67550	0.04375
601.74682	0.04456
599.81815	0.04553
597.88947	0.04645
595.96080	0.04720
594.03212	0.04775
592.10344	0.04801
590.17477	0.04801
588.24609	0.04787
586.31742	0.04770
584.38874	0.04754
582.46007	0.04724
580.53139	0.04680
578.60271	0.04637
576.67404	0.04598
574.74536	0.04554
572.81669	0.04499
570.88801	0.04430
568.95934	0.04358
567.03066	0.04297
565.10198	0.04253
563.17331	0.04227
561.24463	0.04214
559.31596	0.04192
557.38728	0.04155
555.45861	0.04120
553.52993	0.04099
551.60125	0.04084
549.67258	0.04069
547.74390	0.04055
545.81523	0.04043
543.88655	0.04032
541.95788	0.04018
540.02920	0.04001
538.10052	0.03984
536.17185	0.03966
534.24317	0.03942
532.31450	0.03913
530.38582	0.03885
528.45715	0.03857
526.52847	0.03833
524.59979	0.03809
522.67112	0.03772
520.74244	0.03717
518.81377	0.03646
516.88509	0.03565
514.95642	0.03490
513.02774	0.03444
511.09906	0.03432
509.17039	0.03431
507.24171	0.03421
505.31304	0.03398
503.38436	0.03364
501.45569	0.03322
499.52701	0.03278
497.59833	0.03227
495.66966	0.03170
493.74098	0.03123
491.81231	0.03079
489.88363	0.03027
487.95496	0.02968
486.02628	0.02907
484.09760	0.02844
482.16893	0.02773
480.24025	0.02700
478.31158	0.02646
476.38290	0.02613
474.45423	0.02573
472.52555	0.02516
470.59687	0.02458
468.66820	0.02412
466.73952	0.02379
464.81085	0.02352
462.88217	0.02329
460.95350	0.02314
459.02482	0.02309
457.09614	0.02313
455.16747	0.02312
453.23879	0.02296
451.31012	0.02279
449.38144	0.02271
447.45277	0.02260
445.52409	0.02243
443.59541	0.02227
441.66674	0.02204
439.73806	0.02163
437.80939	0.02116
435.88071	0.02081
433.95204	0.02042
432.02336	0.01986
430.09468	0.01924
428.16601	0.01861
426.23733	0.01796
424.30866	0.01731
422.37998	0.01660
420.45131	0.01580
418.52263	0.01503
416.59395	0.01436
414.66528	0.01370
412.73660	0.01305
410.80793	0.01252
408.87925	0.01197
406.95058	0.01134
405.02190	0.01078
403.09322	0.01026
401.16455	0.00962
399.23587	0.00893
397.30720	0.00833
395.37852	0.00782
393.44985	0.00738
391.52117	0.00694
389.59249	0.00639
387.66382	0.00581
385.73514	0.00535
383.80647	0.00499
381.87779	0.00468
379.94912	0.00443
378.02044	0.00416
376.09176	0.00385
374.16309	0.00352
372.23441	0.00318
370.30574	0.00289
368.37706	0.00262
