7496.76250	0.00120
7494.83382	0.00120
7492.90514	0.00121
7490.97647	0.00121
7489.04779	0.00121
7487.11912	0.00121
7485.19044	0.00123
7483.26177	0.00124
7481.33309	0.00123
7479.40441	0.00123
7477.47574	0.00124
7475.54706	0.00125
7473.61839	0.00126
7471.68971	0.00127
7469.76104	0.00127
7467.83236	0.00127
7465.90368	0.00127
7463.97501	0.00127
7462.04633	0.00126
7460.11766	0.00126
7458.18898	0.00127
7456.26031	0.00127
7454.33163	0.00126
7452.40295	0.00127
7450.47428	0.00129
7448.54560	0.00131
7446.61693	0.00132
7444.68825	0.00130
7442.75958	0.00130
7440.83090	0.00129
7438.90222	0.00130
7436.97355	0.00131
7435.04487	0.00131
7433.11620	0.00131
7431.18752	0.00131
7429.25885	0.00131
7427.33017	0.00133
7425.40149	0.00133
7423.47282	0.00133
7421.54414	0.00133
7419.61547	0.00133
7417.68679	0.00134
7415.75812	0.00135
7413.82944	0.00135
7411.90076	0.00135
7409.97209	0.00135
7408.04341	0.00135
7406.11474	0.00135
7404.18606	0.00136
7402.25739	0.00137
7400.32871	0.00137
7398.40003	0.00137
7396.47136	0.00137
7394.54268	0.00138
7392.61401	0.00138
7390.68533	0.00138
7388.75666	0.00140
7386.82798	0.00142
7384.89930	0.00141
7382.97063	0.00140
7381.04195	0.00140
7379.11328	0.00139
7377.18460	0.00139
7375.25593	0.00138
7373.32725	0.00139
7371.39857	0.00141
7369.46990	0.00144
7367.54122	0.00144
7365.61255	0.00142
7363.68387	0.00143
7361.75520	0.00145
7359.82652	0.00147
7357.89784	0.00147
7355.96917	0.00147
7354.04049	0.00149
7352.11182	0.00150
7350.18314	0.00150
7348.25447	0.00149
7346.32579	0.00148
7344.39711	0.00147
7342.46844	0.00148
7340.53976	0.00150
7338.61109	0.00150
7336.68241	0.00151
7334.75374	0.00151
7332.82506	0.00151
7330.89638	0.00150
7328.96771	0.00150
7327.03903	0.00150
7325.11036	0.00151
7323.18168	0.00151
7321.25301	0.00151
7319.32433	0.00151
7317.39565	0.00153
7315.46698	0.00155
7313.53830	0.00156
7311.60963	0.00155
7309.68095	0.00154
7307.75228	0.00154
7305.82360	0.00154
7303.89492	0.00154
7301.96625	0.00154
7300.03757	0.00154
7298.10890	0.00155
7296.18022	0.00155
7294.25155	0.00157
7292.32287	0.00157
7290.39419	0.00156
7288.46552	0.00155
7286.53684	0.00155
7284.60817	0.00157
7282.67949	0.00158
7280.75082	0.00160
7278.82214	0.00160
7276.89346	0.00161
7274.96479	0.00161
7273.03611	0.00161
7271.10744	0.00162
7269.17876	0.00163
7267.25009	0.00165
7265.32141	0.00164
7263.39273	0.00164
7261.46406	0.00164
7259.53538	0.00164
7257.60671	0.00164
7255.67803	0.00165
7253.74936	0.00166
7251.82068	0.00166
7249.89200	0.00166
7247.96333	0.00166
7246.03465	0.00166
7244.10598	0.00166
7242.17730	0.00165
7240.24863	0.00164
7238.31995	0.00165
7236.39127	0.00168
7234.46260	0.00169
7232.53392	0.00168
7230.60525	0.00168
7228.67657	0.00169
7226.74790	0.00170
7224.81922	0.00171
7222.89054	0.00172
7220.96187	0.00171
7219.03319	0.00170
7217.10452	0.00170
7215.17584	0.00172
7213.24717	0.00175
7211.31849	0.00175
7209.38981	0.00175
7207.46114	0.00175
7205.53246	0.00174
7203.60379	0.00175
7201.67511	0.00177
7199.74644	0.00177
7197.81776	0.00176
7195.88908	0.00174
7193.96041	0.00174
7192.03173	0.00176
7190.10306	0.00177
7188.17438	0.00177
7186.24571	0.00177
7184.31703	0.00177
7182.38835	0.00178
7180.45968	0.00179
7178.53100	0.00180
7176.60233	0.00181
7174.67365	0.00181
7172.74498	0.00181
7170.81630	0.00182
7168.88762	0.00182
7166.95895	0.00181
7165.03027	0.00181
7163.10160	0.00182
7161.17292	0.00183
7159.24425	0.00184
7157.31557	0.00184
7155.38689	0.00184
7153.45822	0.00184
7151.52954	0.00184
7149.60087	0.00185
7147.67219	0.00185
7145.74352	0.00185
7143.81484	0.00186
7141.88616	0.00188
7139.95749	0.00189
7138.02881	0.00189
7136.10014	0.00190
7134.17146	0.00191
7132.24279	0.00192
7130.31411	0.00192
7128.38543	0.00190
7126.45676	0.00188
7124.52808	0.00189
7122.59941	0.00190
7120.67073	0.00191
7118.74206	0.00191
7116.81338	0.00192
7114.88470	0.00192
7112.95603	0.00192
7111.02735	0.00193
7109.09868	0.00193
7107.17000	0.00193
7105.24133	0.00194
7103.31265	0.00195
7101.38397	0.00195
7099.45530	0.00196
7097.52662	0.00197
7095.59795	0.00197
7093.66927	0.00198
7091.74060	0.00199
7089.81192	0.00198
7087.88324	0.00198
7085.95457	0.00199
7084.02589	0.00200
7082.09722	0.00201
7080.16854	0.00201
7078.23987	0.00201
7076.31119	0.00201
7074.38251	0.00201
7072.45384	0.00201
7070.52516	0.00201
7068.59649	0.00201
7066.66781	0.00201
7064.73914	0.00202
7062.81046	0.00205
7060.88178	0.00205
7058.95311	0.00205
7057.02443	0.00206
7055.09576	0.00207
7053.16708	0.00208
7051.23841	0.00207
7049.30973	0.00206
7047.38105	0.00206
7045.45238	0.00208
7043.52370	0.00209
7041.59503	0.00210
7039.66635	0.00210
7037.73768	0.00211
7035.80900	0.00211
7033.88032	0.00212
7031.95165	0.00213
7030.02297	0.00214
7028.09430	0.00215
7026.16562	0.00216
7024.23695	0.00215
7022.30827	0.00214
7020.37959	0.00214
7018.45092	0.00213
7016.52224	0.00213
7014.59357	0.00214
7012.66489	0.00215
7010.73622	0.00215
7008.80754	0.00215
7006.87886	0.00216
7004.95019	0.00217
7003.02151	0.00218
7001.09284	0.00218
6999.16416	0.00219
6997.23549	0.00221
6995.30681	0.00222
6993.37813	0.00222
6991.44946	0.00222
6989.52078	0.00222
6987.59211	0.00222
6985.66343	0.00223
6983.73476	0.00224
6981.80608	0.00224
6979.87740	0.00225
6977.94873	0.00226
6976.02005	0.00226
6974.09138	0.00225
6972.16270	0.00224
6970.23403	0.00225
6968.30535	0.00226
6966.37667	0.00227
6964.44800	0.00228
6962.51932	0.00230
6960.59065	0.00232
6958.66197	0.00233
6956.73330	0.00233
6954.80462	0.00233
6952.87594	0.00231
6950.94727	0.00230
6949.01859	0.00230
6947.08992	0.00231
6945.16124	0.00233
6943.23257	0.00233
6941.30389	0.00233
6939.37521	0.00233
6937.44654	0.00233
6935.51786	0.00234
6933.58919	0.00234
6931.66051	0.00235
6929.73184	0.00236
6927.80316	0.00237
6925.87448	0.00238
6923.94581	0.00239
6922.01713	0.00238
6920.08846	0.00238
6918.15978	0.00239
6916.23111	0.00240
6914.30243	0.00240
6912.37375	0.00240
6910.44508	0.00239
6908.51640	0.00240
6906.58773	0.00242
6904.65905	0.00244
6902.73038	0.00244
6900.80170	0.00245
6898.87302	0.00246
6896.94435	0.00245
6895.01567	0.00244
6893.08700	0.00245
6891.15832	0.00247
6889.22965	0.00248
6887.30097	0.00249
6885.37229	0.00249
6883.44362	0.00249
6881.51494	0.00250
6879.58627	0.00253
6877.65759	0.00254
6875.72892	0.00253
6873.80024	0.00251
6871.87156	0.00251
6869.94289	0.00251
6868.01421	0.00251
6866.08554	0.00253
6864.15686	0.00255
6862.22819	0.00255
6860.29951	0.00256
6858.37083	0.00257
6856.44216	0.00257
6854.51348	0.00257
6852.58481	0.00257
6850.65613	0.00257
6848.72746	0.00257
6846.79878	0.00258
6844.87010	0.00259
6842.94143	0.00260
6841.01275	0.00262
6839.08408	0.00262
6837.15540	0.00262
6835.22673	0.00263
6833.29805	0.00264
6831.36937	0.00264
6829.44070	0.00264
6827.51202	0.00266
6825.58335	0.00266
6823.65467	0.00267
6821.72600	0.00268
6819.79732	0.00269
6817.86864	0.00269
6815.93997	0.00269
6814.01129	0.00269
6812.08262	0.00270
6810.15394	0.00272
6808.22527	0.00273
6806.29659	0.00273
6804.36791	0.00273
6802.43924	0.00272
6800.51056	0.00272
6798.58189	0.00273
6796.65321	0.00274
6794.72454	0.00276
6792.79586	0.00278
6790.86718	0.00278
6788.93851	0.00277
6787.00983	0.00276
6785.08116	0.00275
6783.15248	0.00274
6781.22381	0.00276
6779.29513	0.00279
6777.36645	0.00281
6775.43778	0.00282
6773.50910	0.00282
6771.58043	0.00282
6769.65175	0.00282
6767.72308	0.00282
6765.79440	0.00284
6763.86572	0.00285
6761.93705	0.00284
6760.00837	0.00283
6758.07970	0.00284
6756.15102	0.00286
6754.22235	0.00287
6752.29367	0.00287
6750.36499	0.00288
6748.43632	0.00288
6746.50764	0.00288
6744.57897	0.00289
6742.65029	0.00289
6740.72162	0.00290
6738.79294	0.00291
6736.86426	0.00291
6734.93559	0.00291
6733.00691	0.00291
6731.07824	0.00292
6729.14956	0.00292
6727.22089	0.00293
6725.29221	0.00296
6723.36353	0.00298
6721.43486	0.00299
6719.50618	0.00298
6717.57751	0.00297
6715.64883	0.00296
6713.72016	0.00297
6711.79148	0.00299
6709.86280	0.00301
6707.93413	0.00302
6706.00545	0.00303
6704.07678	0.00303
6702.14810	0.00303
6700.21943	0.00302
6698.29075	0.00303
6696.36207	0.00303
6694.43340	0.00304
6692.50472	0.00305
6690.57605	0.00305
6688.64737	0.00306
6686.71870	0.00306
6684.79002	0.00307
6682.86134	0.00307
6680.93267	0.00308
6679.00399	0.00309
6677.07532	0.00310
6675.14664	0.00312
6673.21797	0.00314
6671.28929	0.00314
6669.36061	0.00314
6667.43194	0.00314
6665.50326	0.00315
6663.57459	0.00317
6661.64591	0.00319
6659.71724	0.00320
6657.78856	0.00320
6655.85988	0.00319
6653.93121	0.00318
6652.00253	0.00318
6650.07386	0.00319
6648.14518	0.00318
6646.21651	0.00318
6644.28783	0.00320
6642.35915	0.00322
6640.43048	0.00324
6638.50180	0.00325
6636.57313	0.00325
6634.64445	0.00326
6632.71578	0.00326
6630.78710	0.00325
6628.85842	0.00325
6626.92975	0.00325
6625.00107	0.00326
6623.07240	0.00328
6621.14372	0.00329
6619.21505	0.00330
6617.28637	0.00332
6615.35769	0.00334
6613.42902	0.00334
6611.50034	0.00333
6609.57167	0.00332
6607.64299	0.00333
6605.71432	0.00335
6603.78564	0.00337
6601.85696	0.00338
6599.92829	0.00340
6597.99961	0.00341
6596.07094	0.00342
6594.14226	0.00340
6592.21359	0.00340
6590.28491	0.00342
6588.35623	0.00343
6586.42756	0.00343
6584.49888	0.00343
6582.57021	0.00346
6580.64153	0.00347
6578.71286	0.00347
6576.78418	0.00347
6574.85550	0.00347
6572.92683	0.00348
6570.99815	0.00349
6569.06948	0.00349
6567.14080	0.00348
6565.21213	0.00348
6563.28345	0.00350
6561.35477	0.00352
6559.42610	0.00354
6557.49742	0.00355
6555.56875	0.00355
6553.64007	0.00355
6551.71140	0.00356
6549.78272	0.00357
6547.85404	0.00358
6545.92537	0.00358
6543.99669	0.00359
6542.06802	0.00361
6540.13934	0.00362
6538.21067	0.00362
6536.28199	0.00362
6534.35331	0.00362
6532.42464	0.00363
6530.49596	0.00364
6528.56729	0.00364
6526.63861	0.00364
6524.70994	0.00365
6522.78126	0.00366
6520.85258	0.00367
6518.92391	0.00368
6516.99523	0.00369
6515.06656	0.00369
6513.13788	0.00369
6511.20921	0.00370
6509.28053	0.00372
6507.35185	0.00373
6505.42318	0.00373
6503.49450	0.00374
6501.56583	0.00374
6499.63715	0.00373
6497.70848	0.00375
6495.77980	0.00378
6493.85112	0.00380
6491.92245	0.00381
6489.99377	0.00382
6488.06510	0.00382
6486.13642	0.00382
6484.20775	0.00382
6482.27907	0.00382
6480.35039	0.00384
6478.42172	0.00386
6476.49304	0.00387
6474.56437	0.00387
6472.63569	0.00387
6470.70702	0.00387
6468.77834	0.00389
6466.84966	0.00391
6464.92099	0.00392
6462.99231	0.00392
6461.06364	0.00391
6459.13496	0.00390
6457.20629	0.00390
6455.27761	0.00392
6453.34893	0.00394
6451.42026	0.00395
6449.49158	0.00396
6447.56291	0.00398
6445.63423	0.00399
6443.70556	0.00399
6441.77688	0.00399
6439.84820	0.00400
6437.91953	0.00400
6435.99085	0.00400
6434.06218	0.00402
6432.13350	0.00403
6430.20483	0.00405
6428.27615	0.00406
6426.34747	0.00408
6424.41880	0.00410
6422.49012	0.00410
6420.56145	0.00410
6418.63277	0.00411
6416.70410	0.00414
6414.77542	0.00414
6412.84674	0.00413
6410.91807	0.00412
6408.98939	0.00413
6407.06072	0.00415
6405.13204	0.00416
6403.20337	0.00417
6401.27469	0.00417
6399.34601	0.00417
6397.41734	0.00417
6395.48866	0.00418
6393.55999	0.00420
6391.63131	0.00423
6389.70264	0.00424
6387.77396	0.00423
6385.84528	0.00422
6383.91661	0.00422
6381.98793	0.00423
6380.05926	0.00426
6378.13058	0.00430
6376.20191	0.00432
6374.27323	0.00431
6372.34455	0.00429
6370.41588	0.00430
6368.48720	0.00434
6366.55853	0.00436
6364.62985	0.00436
6362.70118	0.00435
6360.77250	0.00435
6358.84382	0.00437
6356.91515	0.00438
6354.98647	0.00440
6353.05780	0.00441
6351.12912	0.00442
6349.20045	0.00442
6347.27177	0.00442
6345.34309	0.00444
6343.41442	0.00446
6341.48574	0.00448
6339.55707	0.00447
6337.62839	0.00447
6335.69972	0.00448
6333.77104	0.00449
6331.84236	0.00451
6329.91369	0.00452
6327.98501	0.00453
6326.05634	0.00453
6324.12766	0.00454
6322.19899	0.00454
6320.27031	0.00454
6318.34163	0.00456
6316.41296	0.00458
6314.48428	0.00459
6312.55561	0.00460
6310.62693	0.00461
6308.69826	0.00461
6306.76958	0.00462
6304.84090	0.00462
6302.91223	0.00464
6300.98355	0.00465
6299.05488	0.00467
6297.12620	0.00468
6295.19753	0.00470
6293.26885	0.00472
6291.34017	0.00473
6289.41150	0.00473
6287.48282	0.00471
6285.55415	0.00471
6283.62547	0.00473
6281.69680	0.00476
6279.76812	0.00478
6277.83944	0.00479
6275.91077	0.00480
6273.98209	0.00481
6272.05342	0.00482
6270.12474	0.00481
6268.19607	0.00480
6266.26739	0.00483
6264.33871	0.00485
6262.41004	0.00487
6260.48136	0.00487
6258.55269	0.00487
6256.62401	0.00488
6254.69534	0.00490
6252.76666	0.00490
6250.83798	0.00489
6248.90931	0.00490
6246.98063	0.00493
6245.05196	0.00494
6243.12328	0.00496
6241.19461	0.00497
6239.26593	0.00499
6237.33725	0.00499
6235.40858	0.00499
6233.47990	0.00499
6231.55123	0.00500
6229.62255	0.00502
6227.69388	0.00505
6225.76520	0.00506
6223.83652	0.00506
6221.90785	0.00506
6219.97917	0.00507
6218.05050	0.00508
6216.12182	0.00511
6214.19315	0.00512
6212.26447	0.00513
6210.33579	0.00514
6208.40712	0.00516
6206.47844	0.00516
6204.54977	0.00517
6202.62109	0.00518
6200.69242	0.00519
6198.76374	0.00519
6196.83506	0.00519
6194.90639	0.00521
6192.97771	0.00522
6191.04904	0.00523
6189.12036	0.00525
6187.19169	0.00527
6185.26301	0.00527
6183.33433	0.00526
6181.40566	0.00526
6179.47698	0.00527
6177.54831	0.00529
6175.61963	0.00532
6173.69096	0.00535
6171.76228	0.00536
6169.83360	0.00535
6167.90493	0.00535
6165.97625	0.00539
6164.04758	0.00542
6162.11890	0.00543
6160.19023	0.00543
6158.26155	0.00544
6156.33287	0.00546
6154.40420	0.00549
6152.47552	0.00551
6150.54685	0.00551
6148.61817	0.00549
6146.68950	0.00548
6144.76082	0.00548
6142.83214	0.00551
6140.90347	0.00553
6138.97479	0.00554
6137.04612	0.00556
6135.11744	0.00557
6133.18877	0.00558
6131.26009	0.00560
6129.33141	0.00561
6127.40274	0.00562
6125.47406	0.00562
6123.54539	0.00562
6121.61671	0.00562
6119.68804	0.00565
6117.75936	0.00568
6115.83068	0.00569
6113.90201	0.00570
6111.97333	0.00571
6110.04466	0.00573
6108.11598	0.00574
6106.18731	0.00576
6104.25863	0.00576
6102.32995	0.00577
6100.40128	0.00577
6098.47260	0.00577
6096.54393	0.00578
6094.61525	0.00579
6092.68658	0.00581
6090.75790	0.00582
6088.82922	0.00582
6086.90055	0.00583
6084.97187	0.00585
6083.04320	0.00588
6081.11452	0.00590
6079.18585	0.00591
6077.25717	0.00590
6075.32849	0.00591
6073.39982	0.00594
6071.47114	0.00597
6069.54247	0.00598
6067.61379	0.00598
6065.68512	0.00599
6063.75644	0.00600
6061.82776	0.00600
6059.89909	0.00601
6057.97041	0.00601
6056.04174	0.00603
6054.11306	0.00606
6052.18439	0.00609
6050.25571	0.00609
6048.32703	0.00610
6046.39836	0.00611
6044.46968	0.00613
6042.54101	0.00614
6040.61233	0.00614
6038.68366	0.00615
6036.75498	0.00616
6034.82630	0.00618
6032.89763	0.00621
6030.96895	0.00623
6029.04028	0.00624
6027.11160	0.00625
6025.18293	0.00626
6023.25425	0.00627
6021.32557	0.00627
6019.39690	0.00628
6017.46822	0.00630
6015.53955	0.00632
6013.61087	0.00633
6011.68220	0.00634
6009.75352	0.00635
6007.82484	0.00635
6005.89617	0.00635
6003.96749	0.00636
6002.03882	0.00638
6000.11014	0.00640
5998.18147	0.00640
5996.25279	0.00640
5994.32411	0.00642
5992.39544	0.00644
5990.46676	0.00645
5988.53809	0.00646
5986.60941	0.00649
5984.68074	0.00653
5982.75206	0.00655
5980.82338	0.00655
5978.89471	0.00654
5976.96603	0.00656
5975.03736	0.00659
5973.10868	0.00660
5971.18001	0.00660
5969.25133	0.00660
5967.32265	0.00660
5965.39398	0.00661
5963.46530	0.00663
5961.53663	0.00666
5959.60795	0.00669
5957.67928	0.00671
5955.75060	0.00672
5953.82192	0.00672
5951.89325	0.00675
5949.96457	0.00679
5948.03590	0.00683
5946.10722	0.00684
5944.17855	0.00683
5942.24987	0.00682
5940.32119	0.00683
5938.39252	0.00685
5936.46384	0.00686
5934.53517	0.00686
5932.60649	0.00687
5930.67782	0.00690
5928.74914	0.00693
5926.82046	0.00696
5924.89179	0.00697
5922.96311	0.00698
5921.03444	0.00698
5919.10576	0.00698
5917.17709	0.00699
5915.24841	0.00701
5913.31973	0.00704
5911.39106	0.00705
5909.46238	0.00705
5907.53371	0.00706
5905.60503	0.00708
5903.67636	0.00710
5901.74768	0.00712
5899.81900	0.00713
5897.89033	0.00714
5895.96165	0.00716
5894.03298	0.00717
5892.10430	0.00718
5890.17563	0.00719
5888.24695	0.00721
5886.31827	0.00724
5884.38960	0.00726
5882.46092	0.00727
5880.53225	0.00728
5878.60357	0.00732
5876.67490	0.00733
5874.74622	0.00732
5872.81755	0.00732
5870.88887	0.00733
5868.96019	0.00734
5867.03152	0.00734
5865.10284	0.00734
5863.17417	0.00737
5861.24549	0.00741
5859.31682	0.00744
5857.38814	0.00746
5855.45946	0.00748
5853.53079	0.00751
5851.60211	0.00751
5849.67344	0.00750
5847.74476	0.00750
5845.81609	0.00753
5843.88741	0.00758
5841.95873	0.00761
5840.03006	0.00762
5838.10138	0.00764
5836.17271	0.00764
5834.24403	0.00762
5832.31536	0.00762
5830.38668	0.00765
5828.45800	0.00768
5826.52933	0.00770
5824.60065	0.00773
5822.67198	0.00776
5820.74330	0.00776
5818.81463	0.00776
5816.88595	0.00778
5814.95727	0.00781
5813.02860	0.00784
5811.09992	0.00784
5809.17125	0.00785
5807.24257	0.00788
5805.31390	0.00789
5803.38522	0.00790
5801.45654	0.00791
5799.52787	0.00792
5797.59919	0.00795
5795.67052	0.00799
5793.74184	0.00802
5791.81317	0.00803
5789.88449	0.00803
5787.95581	0.00802
5786.02714	0.00802
5784.09846	0.00803
5782.16979	0.00805
5780.24111	0.00808
5778.31244	0.00812
5776.38376	0.00814
5774.45508	0.00814
5772.52641	0.00815
5770.59773	0.00817
5768.66906	0.00820
5766.74038	0.00824
5764.81171	0.00826
5762.88303	0.00827
5760.95435	0.00827
5759.02568	0.00829
5757.09700	0.00832
5755.16833	0.00834
5753.23965	0.00834
5751.31098	0.00834
5749.38230	0.00835
5747.45362	0.00838
5745.52495	0.00841
5743.59627	0.00844
5741.66760	0.00845
5739.73892	0.00847
5737.81025	0.00849
5735.88157	0.00850
5733.95289	0.00850
5732.02422	0.00849
5730.09554	0.00851
5728.16687	0.00854
5726.23819	0.00857
5724.30952	0.00859
5722.38084	0.00860
5720.45216	0.00861
5718.52349	0.00863
5716.59481	0.00864
5714.66614	0.00866
5712.73746	0.00870
5710.80879	0.00874
5708.88011	0.00874
5706.95143	0.00871
5705.02276	0.00869
5703.09408	0.00872
5701.16541	0.00877
5699.23673	0.00881
5697.30806	0.00882
5695.37938	0.00882
5693.45070	0.00883
5691.52203	0.00885
5689.59335	0.00887
5687.66468	0.00888
5685.73600	0.00890
5683.80733	0.00892
5681.87865	0.00894
5679.94997	0.00897
5678.02130	0.00900
5676.09262	0.00902
5674.16395	0.00904
5672.23527	0.00904
5670.30660	0.00905
5668.37792	0.00908
5666.44924	0.00911
5664.52057	0.00913
5662.59189	0.00915
5660.66322	0.00916
5658.73454	0.00916
5656.80587	0.00916
5654.87719	0.00918
5652.94851	0.00920
5651.01984	0.00924
5649.09116	0.00928
5647.16249	0.00931
5645.23381	0.00933
5643.30514	0.00935
5641.37646	0.00936
5639.44778	0.00937
5637.51911	0.00939
5635.59043	0.00941
5633.66176	0.00942
5631.73308	0.00943
5629.80441	0.00944
5627.87573	0.00946
5625.94705	0.00950
5624.01838	0.00953
5622.08970	0.00955
5620.16103	0.00955
5618.23235	0.00956
5616.30368	0.00959
5614.37500	0.00961
5612.44632	0.00962
5610.51765	0.00962
5608.58897	0.00965
5606.66030	0.00967
5604.73162	0.00967
5602.80295	0.00968
5600.87427	0.00968
5598.94559	0.00968
5597.01692	0.00971
5595.08824	0.00974
5593.15957	0.00978
5591.23089	0.00981
5589.30222	0.00983
5587.37354	0.00986
5585.44486	0.00988
5583.51619	0.00988
5581.58751	0.00988
5579.65884	0.00989
5577.73016	0.00992
5575.80149	0.00996
5573.87281	0.00999
5571.94413	0.01000
5570.01546	0.01001
5568.08678	0.01003
5566.15811	0.01006
5564.22943	0.01009
5562.30076	0.01012
5560.37208	0.01014
5558.44340	0.01014
5556.51473	0.01013
5554.58605	0.01015
5552.65738	0.01018
5550.72870	0.01021
5548.80003	0.01023
5546.87135	0.01026
5544.94267	0.01027
5543.01400	0.01029
5541.08532	0.01029
5539.15665	0.01028
5537.22797	0.01030
5535.29930	0.01034
5533.37062	0.01037
5531.44194	0.01039
5529.51327	0.01041
5527.58459	0.01043
5525.65592	0.01045
5523.72724	0.01047
5521.79857	0.01049
5519.86989	0.01052
5517.94121	0.01055
5516.01254	0.01057
5514.08386	0.01059
5512.15519	0.01061
5510.22651	0.01064
5508.29784	0.01066
5506.36916	0.01066
5504.44048	0.01066
5502.51181	0.01069
5500.58313	0.01072
5498.65446	0.01075
5496.72578	0.01077
5494.79711	0.01080
5492.86843	0.01082
5490.93975	0.01084
5489.01108	0.01084
5487.08240	0.01086
5485.15373	0.01088
5483.22505	0.01091
5481.29638	0.01093
5479.36770	0.01094
5477.43902	0.01097
5475.51035	0.01101
5473.58167	0.01103
5471.65300	0.01103
5469.72432	0.01103
5467.79565	0.01105
5465.86697	0.01108
5463.93829	0.01112
5462.00962	0.01116
5460.08094	0.01119
5458.15227	0.01119
5456.22359	0.01121
5454.29492	0.01123
5452.36624	0.01126
5450.43756	0.01128
5448.50889	0.01129
5446.58021	0.01130
5444.65154	0.01130
5442.72286	0.01133
5440.79419	0.01136
5438.86551	0.01138
5436.93683	0.01139
5435.00816	0.01140
5433.07948	0.01143
5431.15081	0.01146
5429.22213	0.01148
5427.29346	0.01152
5425.36478	0.01157
5423.43610	0.01160
5421.50743	0.01160
5419.57875	0.01160
5417.65008	0.01162
5415.72140	0.01163
5413.79273	0.01165
5411.86405	0.01167
5409.93537	0.01169
5408.00670	0.01171
5406.07802	0.01174
5404.14935	0.01177
5402.22067	0.01179
5400.29200	0.01180
5398.36332	0.01182
5396.43464	0.01184
5394.50597	0.01185
5392.57729	0.01188
5390.64862	0.01193
5388.71994	0.01197
5386.79127	0.01198
5384.86259	0.01199
5382.93391	0.01202
5381.00524	0.01205
5379.07656	0.01206
5377.14789	0.01208
5375.21921	0.01209
5373.29054	0.01209
5371.36186	0.01210
5369.43318	0.01214
5367.50451	0.01217
5365.57583	0.01219
5363.64716	0.01221
5361.71848	0.01224
5359.78981	0.01226
5357.86113	0.01226
5355.93245	0.01227
5354.00378	0.01230
5352.07510	0.01233
5350.14643	0.01236
5348.21775	0.01240
5346.28908	0.01242
5344.36040	0.01243
5342.43172	0.01243
5340.50305	0.01244
5338.57437	0.01247
5336.64570	0.01250
5334.71702	0.01252
5332.78835	0.01255
5330.85967	0.01256
5328.93099	0.01259
5327.00232	0.01262
5325.07364	0.01264
5323.14497	0.01268
5321.21629	0.01271
5319.28762	0.01275
5317.35894	0.01276
5315.43026	0.01277
5313.50159	0.01279
5311.57291	0.01281
5309.64424	0.01283
5307.71556	0.01287
5305.78689	0.01292
5303.85821	0.01295
5301.92953	0.01295
5300.00086	0.01295
5298.07218	0.01297
5296.14351	0.01299
5294.21483	0.01301
5292.28616	0.01305
5290.35748	0.01309
5288.42880	0.01310
5286.50013	0.01310
5284.57145	0.01311
5282.64278	0.01313
5280.71410	0.01316
5278.78543	0.01320
5276.85675	0.01323
5274.92807	0.01325
5272.99940	0.01327
5271.07072	0.01330
5269.14205	0.01334
5267.21337	0.01335
5265.28470	0.01336
5263.35602	0.01339
5261.42734	0.01342
5259.49867	0.01343
5257.56999	0.01342
5255.64132	0.01344
5253.71264	0.01347
5251.78397	0.01349
5249.85529	0.01351
5247.92661	0.01354
5245.99794	0.01358
5244.06926	0.01362
5242.14059	0.01365
5240.21191	0.01368
5238.28324	0.01370
5236.35456	0.01373
5234.42588	0.01376
5232.49721	0.01378
5230.56853	0.01380
5228.63986	0.01382
5226.71118	0.01384
5224.78251	0.01386
5222.85383	0.01388
5220.92515	0.01390
5218.99648	0.01394
5217.06780	0.01398
5215.13913	0.01401
5213.21045	0.01404
5211.28178	0.01405
5209.35310	0.01405
5207.42442	0.01406
5205.49575	0.01410
5203.56707	0.01413
5201.63840	0.01415
5199.70972	0.01417
5197.78105	0.01419
5195.85237	0.01422
5193.92369	0.01425
5191.99502	0.01429
5190.06634	0.01433
5188.13767	0.01434
5186.20899	0.01434
5184.28032	0.01434
5182.35164	0.01437
5180.42296	0.01442
5178.49429	0.01445
5176.56561	0.01446
5174.63694	0.01448
5172.70826	0.01452
5170.77959	0.01455
5168.85091	0.01457
5166.92223	0.01459
5164.99356	0.01462
5163.06488	0.01465
5161.13621	0.01467
5159.20753	0.01469
5157.27886	0.01470
5155.35018	0.01472
5153.42150	0.01475
5151.49283	0.01480
5149.56415	0.01484
5147.63548	0.01485
5145.70680	0.01486
5143.77813	0.01488
5141.84945	0.01491
5139.92077	0.01493
5137.99210	0.01494
5136.06342	0.01496
5134.13475	0.01500
5132.20607	0.01504
5130.27740	0.01508
5128.34872	0.01510
5126.42004	0.01511
5124.49137	0.01512
5122.56269	0.01516
5120.63402	0.01520
5118.70534	0.01522
5116.77667	0.01524
5114.84799	0.01527
5112.91931	0.01529
5110.99064	0.01530
5109.06196	0.01532
5107.13329	0.01533
5105.20461	0.01535
5103.27594	0.01540
5101.34726	0.01545
5099.41858	0.01548
5097.48991	0.01549
5095.56123	0.01551
5093.63256	0.01553
5091.70388	0.01555
5089.77521	0.01558
5087.84653	0.01560
5085.91785	0.01562
5083.98918	0.01565
5082.06050	0.01568
5080.13183	0.01571
5078.20315	0.01573
5076.27448	0.01575
5074.34580	0.01577
5072.41712	0.01582
5070.48845	0.01587
5068.55977	0.01589
5066.63110	0.01589
5064.70242	0.01588
5062.77375	0.01590
5060.84507	0.01593
5058.91639	0.01597
5056.98772	0.01601
5055.05904	0.01605
5053.13037	0.01608
5051.20169	0.01609
5049.27302	0.01611
5047.34434	0.01614
5045.41566	0.01618
5043.48699	0.01622
5041.55831	0.01626
5039.62964	0.01629
5037.70096	0.01631
5035.77229	0.01634
5033.84361	0.01636
5031.91493	0.01637
5029.98626	0.01640
5028.05758	0.01643
5026.12891	0.01643
5024.20023	0.01645
5022.27156	0.01650
5020.34288	0.01655
5018.41420	0.01659
5016.48553	0.01663
5014.55685	0.01664
5012.62818	0.01664
5010.69950	0.01666
5008.77083	0.01669
5006.84215	0.01672
5004.91347	0.01674
5002.98480	0.01677
5001.05612	0.01679
4999.12745	0.01682
4997.19877	0.01686
4995.27010	0.01689
4993.34142	0.01692
4991.41274	0.01693
4989.48407	0.01695
4987.55539	0.01699
4985.62672	0.01705
4983.69804	0.01709
4981.76937	0.01711
4979.84069	0.01711
4977.91201	0.01713
4975.98334	0.01718
4974.05466	0.01722
4972.12599	0.01724
4970.19731	0.01726
4968.26864	0.01728
4966.33996	0.01732
4964.41128	0.01736
4962.48261	0.01737
4960.55393	0.01738
4958.62526	0.01741
4956.69658	0.01745
4954.76791	0.01748
4952.83923	0.01750
4950.91055	0.01752
4948.98188	0.01755
4947.05320	0.01758
4945.12453	0.01762
4943.19585	0.01763
4941.26718	0.01766
4939.33850	0.01770
4937.40982	0.01774
4935.48115	0.01776
4933.55247	0.01777
4931.62380	0.01777
4929.69512	0.01779
4927.76645	0.01782
4925.83777	0.01785
4923.90909	0.01789
4921.98042	0.01791
4920.05174	0.01793
4918.12307	0.01797
4916.19439	0.01803
4914.26572	0.01806
4912.33704	0.01809
4910.40836	0.01812
4908.47969	0.01815
4906.55101	0.01816
4904.62234	0.01818
4902.69366	0.01822
4900.76499	0.01826
4898.83631	0.01828
4896.90763	0.01831
4894.97896	0.01833
4893.05028	0.01835
4891.12161	0.01840
4889.19293	0.01845
4887.26426	0.01849
4885.33558	0.01851
4883.40690	0.01853
4881.47823	0.01854
4879.54955	0.01856
4877.62088	0.01858
4875.69220	0.01862
4873.76353	0.01867
4871.83485	0.01871
4869.90617	0.01874
4867.97750	0.01876
4866.04882	0.01877
4864.12015	0.01879
4862.19147	0.01881
4860.26280	0.01885
4858.33412	0.01889
4856.40544	0.01892
4854.47677	0.01896
4852.54809	0.01901
4850.61942	0.01904
4848.69074	0.01904
4846.76207	0.01906
4844.83339	0.01911
4842.90471	0.01916
4840.97604	0.01919
4839.04736	0.01918
4837.11869	0.01919
4835.19001	0.01920
4833.26134	0.01923
4831.33266	0.01928
4829.40398	0.01933
4827.47531	0.01935
4825.54663	0.01937
4823.61796	0.01941
4821.68928	0.01945
4819.76061	0.01950
4817.83193	0.01952
4815.90325	0.01954
4813.97458	0.01958
4812.04590	0.01963
4810.11723	0.01968
4808.18855	0.01971
4806.25988	0.01972
4804.33120	0.01973
4802.40252	0.01976
4800.47385	0.01980
4798.54517	0.01983
4796.61650	0.01987
4794.68782	0.01991
4792.75915	0.01994
4790.83047	0.01996
4788.90179	0.02000
4786.97312	0.02005
4785.04444	0.02007
4783.11577	0.02008
4781.18709	0.02009
4779.25842	0.02014
4777.32974	0.02020
4775.40106	0.02024
4773.47239	0.02026
4771.54371	0.02030
4769.61504	0.02034
4767.68636	0.02036
4765.75769	0.02037
4763.82901	0.02041
4761.90033	0.02047
4759.97166	0.02051
4758.04298	0.02054
4756.11431	0.02056
4754.18563	0.02058
4752.25696	0.02060
4750.32828	0.02062
4748.39960	0.02065
4746.47093	0.02069
4744.54225	0.02075
4742.61358	0.02080
4740.68490	0.02082
4738.75623	0.02083
4736.82755	0.02086
4734.89887	0.02090
4732.97020	0.02094
4731.04152	0.02098
4729.11285	0.02098
4727.18417	0.02100
4725.25550	0.02106
4723.32682	0.02112
4721.39814	0.02115
4719.46947	0.02116
4717.54079	0.02117
4715.61212	0.02121
4713.68344	0.02127
4711.75477	0.02131
4709.82609	0.02132
4707.89741	0.02134
4705.96874	0.02137
4704.04006	0.02142
4702.11139	0.02147
4700.18271	0.02151
4698.25404	0.02155
4696.32536	0.02158
4694.39668	0.02161
4692.46801	0.02164
4690.53933	0.02169
4688.61066	0.02172
4686.68198	0.02176
4684.75331	0.02180
4682.82463	0.02183
4680.89595	0.02185
4678.96728	0.02189
4677.03860	0.02193
4675.10993	0.02196
4673.18125	0.02197
4671.25258	0.02200
4669.32390	0.02204
4667.39522	0.02209
4665.46655	0.02214
4663.53787	0.02217
4661.60920	0.02219
4659.68052	0.02221
4657.75185	0.02225
4655.82317	0.02229
4653.89449	0.02232
4651.96582	0.02237
4650.03714	0.02240
4648.10847	0.02242
4646.17979	0.02245
4644.25112	0.02251
4642.32244	0.02256
4640.39376	0.02258
4638.46509	0.02259
4636.53641	0.02264
4634.60774	0.02272
4632.67906	0.02277
4630.75039	0.02280
4628.82171	0.02282
4626.89303	0.02286
4624.96436	0.02290
4623.03568	0.02291
4621.10701	0.02293
4619.17833	0.02299
4617.24966	0.02303
4615.32098	0.02303
4613.39230	0.02306
4611.46363	0.02311
4609.53495	0.02316
4607.60628	0.02320
4605.67760	0.02324
4603.74893	0.02328
4601.82025	0.02333
4599.89157	0.02338
4597.96290	0.02343
4596.03422	0.02348
4594.10555	0.02352
4592.17687	0.02352
4590.24820	0.02353
4588.31952	0.02359
4586.39084	0.02367
4584.46217	0.02372
4582.53349	0.02375
4580.60482	0.02378
4578.67614	0.02381
4576.74747	0.02383
4574.81879	0.02387
4572.89011	0.02392
4570.96144	0.02397
4569.03276	0.02401
4567.10409	0.02404
4565.17541	0.02407
4563.24674	0.02408
4561.31806	0.02411
4559.38938	0.02416
4557.46071	0.02421
4555.53203	0.02425
4553.60336	0.02429
4551.67468	0.02433
4549.74601	0.02437
4547.81733	0.02443
4545.88865	0.02449
4543.95998	0.02453
4542.03130	0.02456
4540.10263	0.02459
4538.17395	0.02463
4536.24528	0.02467
4534.31660	0.02470
4532.38792	0.02472
4530.45925	0.02476
4528.53057	0.02482
4526.60190	0.02489
4524.67322	0.02495
4522.74455	0.02498
4520.81587	0.02501
4518.88719	0.02503
4516.95852	0.02507
4515.02984	0.02512
4513.10117	0.02516
4511.17249	0.02519
4509.24382	0.02524
4507.31514	0.02531
4505.38646	0.02536
4503.45779	0.02540
4501.52911	0.02544
4499.60044	0.02548
4497.67176	0.02552
4495.74309	0.02554
4493.81441	0.02558
4491.88573	0.02564
4489.95706	0.02570
4488.02838	0.02574
4486.09971	0.02578
4484.17103	0.02582
4482.24236	0.02586
4480.31368	0.02590
4478.38500	0.02594
4476.45633	0.02599
4474.52765	0.02603
4472.59898	0.02606
4470.67030	0.02609
4468.74163	0.02615
4466.81295	0.02622
4464.88427	0.02626
4462.95560	0.02629
4461.02692	0.02632
4459.09825	0.02636
4457.16957	0.02642
4455.24090	0.02648
4453.31222	0.02654
4451.38354	0.02657
4449.45487	0.02661
4447.52619	0.02666
4445.59752	0.02673
4443.66884	0.02677
4441.74017	0.02680
4439.81149	0.02684
4437.88281	0.02692
4435.95414	0.02700
4434.02546	0.02706
4432.09679	0.02710
4430.16811	0.02714
4428.23944	0.02718
4426.31076	0.02722
4424.38208	0.02726
4422.45341	0.02729
4420.52473	0.02732
4418.59606	0.02735
4416.66738	0.02739
4414.73871	0.02743
4412.81003	0.02749
4410.88135	0.02755
4408.95268	0.02761
4407.02400	0.02765
4405.09533	0.02770
4403.16665	0.02776
4401.23798	0.02782
4399.30930	0.02787
4397.38062	0.02793
4395.45195	0.02796
4393.52327	0.02800
4391.59460	0.02805
4389.66592	0.02809
4387.73725	0.02813
4385.80857	0.02819
4383.87989	0.02825
4381.95122	0.02828
4380.02254	0.02831
4378.09387	0.02835
4376.16519	0.02840
4374.23652	0.02845
4372.30784	0.02850
4370.37916	0.02855
4368.45049	0.02861
4366.52181	0.02866
4364.59314	0.02869
4362.66446	0.02873
4360.73579	0.02879
4358.80711	0.02887
4356.87843	0.02893
4354.94976	0.02899
4353.02108	0.02905
4351.09241	0.02908
4349.16373	0.02910
4347.23506	0.02917
4345.30638	0.02925
4343.37770	0.02931
4341.44903	0.02934
4339.52035	0.02938
4337.59168	0.02942
4335.66300	0.02948
4333.73433	0.02956
4331.80565	0.02962
4329.87697	0.02964
4327.94830	0.02968
4326.01962	0.02975
4324.09095	0.02982
4322.16227	0.02988
4320.23360	0.02995
4318.30492	0.03000
4316.37624	0.03004
4314.44757	0.03009
4312.51889	0.03013
4310.59022	0.03018
4308.66154	0.03023
4306.73287	0.03030
4304.80419	0.03036
4302.87551	0.03042
4300.94684	0.03047
4299.01816	0.03053
4297.08949	0.03058
4295.16081	0.03063
4293.23214	0.03068
4291.30346	0.03077
4289.37478	0.03085
4287.44611	0.03090
4285.51743	0.03094
4283.58876	0.03099
4281.66008	0.03105
4279.73141	0.03113
4277.80273	0.03119
4275.87405	0.03123
4273.94538	0.03129
4272.01670	0.03137
4270.08803	0.03144
4268.15935	0.03149
4266.23068	0.03155
4264.30200	0.03162
4262.37332	0.03166
4260.44465	0.03167
4258.51597	0.03169
4256.58730	0.03174
4254.65862	0.03180
4252.72995	0.03188
4250.80127	0.03197
4248.87259	0.03204
4246.94392	0.03208
4245.01524	0.03212
4243.08657	0.03218
4241.15789	0.03226
4239.22922	0.03233
4237.30054	0.03237
4235.37186	0.03241
4233.44319	0.03248
4231.51451	0.03254
4229.58584	0.03260
4227.65716	0.03267
4225.72849	0.03275
4223.79981	0.03281
4221.87113	0.03285
4219.94246	0.03289
4218.01378	0.03295
4216.08511	0.03302
4214.15643	0.03307
4212.22776	0.03313
4210.29908	0.03320
4208.37040	0.03325
4206.44173	0.03332
4204.51305	0.03340
4202.58438	0.03348
4200.65570	0.03354
4198.72703	0.03359
4196.79835	0.03365
4194.86968	0.03372
4192.94100	0.03381
4191.01232	0.03389
4189.08365	0.03395
4187.15497	0.03400
4185.22630	0.03404
4183.29762	0.03407
4181.36895	0.03413
4179.44027	0.03421
4177.51159	0.03430
4175.58292	0.03437
4173.65424	0.03443
4171.72557	0.03449
4169.79689	0.03455
4167.86822	0.03459
4165.93954	0.03462
4164.01086	0.03468
4162.08219	0.03477
4160.15351	0.03485
4158.22484	0.03490
4156.29616	0.03497
4154.36749	0.03505
4152.43881	0.03514
4150.51013	0.03522
4148.58146	0.03528
4146.65278	0.03532
4144.72411	0.03536
4142.79543	0.03542
4140.86676	0.03549
4138.93808	0.03558
4137.00940	0.03567
4135.08073	0.03574
4133.15205	0.03580
4131.22338	0.03587
4129.29470	0.03593
4127.36603	0.03597
4125.43735	0.03603
4123.50867	0.03612
4121.58000	0.03620
4119.65132	0.03626
4117.72265	0.03633
4115.79397	0.03640
4113.86530	0.03645
4111.93662	0.03651
4110.00794	0.03659
4108.07927	0.03666
4106.15059	0.03672
4104.22192	0.03678
4102.29324	0.03686
4100.36457	0.03695
4098.43589	0.03702
4096.50721	0.03707
4094.57854	0.03715
4092.64986	0.03725
4090.72119	0.03734
4088.79251	0.03739
4086.86384	0.03744
4084.93516	0.03750
4083.00648	0.03757
4081.07781	0.03762
4079.14913	0.03767
4077.22046	0.03774
4075.29178	0.03782
4073.36311	0.03791
4071.43443	0.03799
4069.50575	0.03807
4067.57708	0.03812
4065.64840	0.03817
4063.71973	0.03825
4061.79105	0.03837
4059.86238	0.03847
4057.93370	0.03855
4056.00502	0.03860
4054.07635	0.03866
4052.14767	0.03874
4050.21900	0.03882
4048.29032	0.03890
4046.36165	0.03897
4044.43297	0.03904
4042.50429	0.03912
4040.57562	0.03922
4038.64694	0.03930
4036.71827	0.03937
4034.78959	0.03941
4032.86092	0.03943
4030.93224	0.03948
4029.00356	0.03956
4027.07489	0.03966
4025.14621	0.03974
4023.21754	0.03983
4021.28886	0.03990
4019.36019	0.03997
4017.43151	0.04006
4015.50283	0.04014
4013.57416	0.04022
4011.64548	0.04030
4009.71681	0.04037
4007.78813	0.04046
4005.85946	0.04055
4003.93078	0.04062
4002.00210	0.04068
4000.07343	0.04075
3998.14475	0.04083
3996.21608	0.04093
3994.28740	0.04101
3992.35873	0.04108
3990.43005	0.04115
3988.50137	0.04122
3986.57270	0.04128
3984.64402	0.04137
3982.71535	0.04149
3980.78667	0.04159
3978.85800	0.04165
3976.92932	0.04171
3975.00064	0.04179
3973.07197	0.04187
3971.14329	0.04193
3969.21462	0.04200
3967.28594	0.04208
3965.35727	0.04215
3963.42859	0.04221
3961.49991	0.04230
3959.57124	0.04241
3957.64256	0.04251
3955.71389	0.04261
3953.78521	0.04268
3951.85654	0.04271
3949.92786	0.04275
3947.99918	0.04281
3946.07051	0.04289
3944.14183	0.04299
3942.21316	0.04310
3940.28448	0.04320
3938.35581	0.04328
3936.42713	0.04335
3934.49845	0.04340
3932.56978	0.04347
3930.64110	0.04358
3928.71243	0.04369
3926.78375	0.04375
3924.85508	0.04377
3922.92640	0.04385
3920.99772	0.04395
3919.06905	0.04402
3917.14037	0.04412
3915.21170	0.04424
3913.28302	0.04436
3911.35435	0.04446
3909.42567	0.04453
3907.49699	0.04456
3905.56832	0.04455
3903.63964	0.04456
3901.71097	0.04462
3899.78229	0.04474
3897.85362	0.04489
3895.92494	0.04503
3893.99626	0.04511
3892.06759	0.04517
3890.13891	0.04527
3888.21024	0.04532
3886.28156	0.04533
3884.35289	0.04541
3882.42421	0.04552
3880.49553	0.04562
3878.56686	0.04574
3876.63818	0.04585
3874.70951	0.04591
3872.78083	0.04594
3870.85216	0.04597
3868.92348	0.04606
3866.99480	0.04618
3865.06613	0.04626
3863.13745	0.04639
3861.20878	0.04656
3859.28010	0.04666
3857.35143	0.04662
3855.42275	0.04649
3853.49407	0.04648
3851.56540	0.04673
3849.63672	0.04705
3847.70805	0.04724
3845.77937	0.04733
3843.85070	0.04737
3841.92202	0.04738
3839.99334	0.04738
3838.06467	0.04744
3836.13599	0.04755
3834.20732	0.04769
3832.27864	0.04783
3830.34997	0.04796
3828.42129	0.04807
3826.49261	0.04816
3824.56394	0.04823
3822.63526	0.04825
3820.70659	0.04830
3818.77791	0.04841
3816.84924	0.04851
3814.92056	0.04863
3812.99188	0.04880
3811.06321	0.04891
3809.13453	0.04895
3807.20586	0.04900
3805.27718	0.04908
3803.34851	0.04912
3801.41983	0.04918
3799.49115	0.04932
3797.56248	0.04949
3795.63380	0.04963
3793.70513	0.04979
3791.77645	0.04992
3789.84778	0.05002
3787.91910	0.05010
3785.99042	0.05019
3784.06175	0.05026
3782.13307	0.05032
3780.20440	0.05038
3778.27572	0.05048
3776.34705	0.05061
3774.41837	0.05070
3772.48969	0.05074
3770.56102	0.05077
3768.63234	0.05086
3766.70367	0.05099
3764.77499	0.05110
3762.84632	0.05119
3760.91764	0.05124
3758.98896	0.05131
3757.06029	0.05140
3755.13161	0.05146
3753.20294	0.05142
3751.27426	0.05139
3749.34559	0.05148
3747.41691	0.05156
3745.48823	0.05158
3743.55956	0.05174
3741.63088	0.05202
3739.70221	0.05216
3737.77353	0.05212
3735.84486	0.05213
3733.91618	0.05227
3731.98750	0.05249
3730.05883	0.05273
3728.13015	0.05287
3726.20148	0.05293
3724.27280	0.05299
3722.34413	0.05310
3720.41545	0.05323
3718.48677	0.05338
3716.55810	0.05347
3714.62942	0.05346
3712.70075	0.05342
3710.77207	0.05352
3708.84340	0.05374
3706.91472	0.05393
3704.98604	0.05402
3703.05737	0.05407
3701.12869	0.05415
3699.20002	0.05428
3697.27134	0.05439
3695.34267	0.05445
3693.41399	0.05447
3691.48531	0.05447
3689.55664	0.05451
3687.62796	0.05468
3685.69929	0.05492
3683.77061	0.05507
3681.84194	0.05512
3679.91326	0.05515
3677.98458	0.05512
3676.05591	0.05510
3674.12723	0.05519
3672.19856	0.05533
3670.26988	0.05543
3668.34121	0.05562
3666.41253	0.05585
3664.48385	0.05601
3662.55518	0.05610
3660.62650	0.05619
3658.69783	0.05623
3656.76915	0.05623
3654.84048	0.05627
3652.91180	0.05629
3650.98312	0.05618
3649.05445	0.05610
3647.12577	0.05623
3645.19710	0.05649
3643.26842	0.05673
3641.33975	0.05690
3639.41107	0.05702
3637.48239	0.05713
3635.55372	0.05722
3633.62504	0.05727
3631.69637	0.05723
3629.76769	0.05717
3627.83902	0.05728
3625.91034	0.05751
3623.98166	0.05767
3622.05299	0.05770
3620.12431	0.05768
3618.19564	0.05774
3616.26696	0.05784
3614.33829	0.05788
3612.40961	0.05790
3610.48093	0.05795
3608.55226	0.05806
3606.62358	0.05821
3604.69491	0.05835
3602.76623	0.05842
3600.83756	0.05847
3598.90888	0.05853
3596.98020	0.05859
3595.05153	0.05867
3593.12285	0.05878
3591.19418	0.05887
3589.26550	0.05887
3587.33683	0.05890
3585.40815	0.05904
3583.47947	0.05921
3581.55080	0.05929
3579.62212	0.05933
3577.69345	0.05940
3575.76477	0.05951
3573.83610	0.05963
3571.90742	0.05974
3569.97874	0.05976
3568.05007	0.05972
3566.12139	0.05977
3564.19272	0.05992
3562.26404	0.06006
3560.33537	0.06016
3558.40669	0.06025
3556.47801	0.06032
3554.54934	0.06038
3552.62066	0.06045
3550.69199	0.06053
3548.76331	0.06060
3546.83464	0.06066
3544.90596	0.06074
3542.97728	0.06084
3541.04861	0.06090
3539.11993	0.06096
3537.19126	0.06101
3535.26258	0.06109
3533.33391	0.06117
3531.40523	0.06120
3529.47655	0.06120
3527.54788	0.06123
3525.61920	0.06130
3523.69053	0.06136
3521.76185	0.06143
3519.83318	0.06149
3517.90450	0.06152
3515.97582	0.06154
3514.04715	0.06157
3512.11847	0.06163
3510.18980	0.06169
3508.26112	0.06173
3506.33245	0.06174
3504.40377	0.06175
3502.47509	0.06179
3500.54642	0.06184
3498.61774	0.06186
3496.68907	0.06187
3494.76039	0.06189
3492.83172	0.06191
3490.90304	0.06193
3488.97436	0.06197
3487.04569	0.06201
3485.11701	0.06205
3483.18834	0.06210
3481.25966	0.06217
3479.33099	0.06226
3477.40231	0.06234
3475.47363	0.06242
3473.54496	0.06250
3471.61628	0.06256
3469.68761	0.06263
3467.75893	0.06271
3465.83026	0.06280
3463.90158	0.06291
3461.97290	0.06303
3460.04423	0.06314
3458.11555	0.06324
3456.18688	0.06334
3454.25820	0.06343
3452.32953	0.06352
3450.40085	0.06363
3448.47217	0.06373
3446.54350	0.06383
3444.61482	0.06392
3442.68615	0.06400
3440.75747	0.06412
3438.82880	0.06428
3436.90012	0.06447
3434.97144	0.06465
3433.04277	0.06481
3431.11409	0.06499
3429.18542	0.06519
3427.25674	0.06539
3425.32807	0.06559
3423.39939	0.06582
3421.47071	0.06604
3419.54204	0.06622
3417.61336	0.06639
3415.68469	0.06654
3413.75601	0.06666
3411.82734	0.06677
3409.89866	0.06689
3407.96998	0.06703
3406.04131	0.06718
3404.11263	0.06733
3402.18396	0.06747
3400.25528	0.06761
3398.32661	0.06777
3396.39793	0.06791
3394.46925	0.06806
3392.54058	0.06822
3390.61190	0.06840
3388.68323	0.06855
3386.75455	0.06866
3384.82588	0.06877
3382.89720	0.06887
3380.96852	0.06900
3379.03985	0.06914
3377.11117	0.06929
3375.18250	0.06944
3373.25382	0.06960
3371.32515	0.06973
3369.39647	0.06981
3367.46779	0.06989
3365.53912	0.07001
3363.61044	0.07015
3361.68177	0.07028
3359.75309	0.07042
3357.82442	0.07056
3355.89574	0.07068
3353.96706	0.07079
3352.03839	0.07092
3350.10971	0.07106
3348.18104	0.07118
3346.25236	0.07126
3344.32369	0.07135
3342.39501	0.07147
3340.46633	0.07162
3338.53766	0.07178
3336.60898	0.07192
3334.68031	0.07204
3332.75163	0.07217
3330.82296	0.07231
3328.89428	0.07245
3326.96560	0.07256
3325.03693	0.07267
3323.10825	0.07281
3321.17958	0.07293
3319.25090	0.07306
3317.32223	0.07320
3315.39355	0.07337
3313.46487	0.07353
3311.53620	0.07367
3309.60752	0.07379
3307.67885	0.07390
3305.75017	0.07401
3303.82150	0.07413
3301.89282	0.07423
3299.96414	0.07434
3298.03547	0.07451
3296.10679	0.07469
3294.17812	0.07482
3292.24944	0.07494
3290.32077	0.07507
3288.39209	0.07523
3286.46341	0.07536
3284.53474	0.07548
3282.60606	0.07561
3280.67739	0.07575
3278.74871	0.07587
3276.82004	0.07601
3274.89136	0.07617
3272.96268	0.07633
3271.03401	0.07645
3269.10533	0.07656
3267.17666	0.07672
3265.24798	0.07686
3263.31931	0.07698
3261.39063	0.07710
3259.46195	0.07726
3257.53328	0.07743
3255.60460	0.07757
3253.67593	0.07771
3251.74725	0.07784
3249.81858	0.07798
3247.88990	0.07812
3245.96122	0.07825
3244.03255	0.07838
3242.10387	0.07851
3240.17520	0.07863
3238.24652	0.07873
3236.31785	0.07884
3234.38917	0.07900
3232.46049	0.07918
3230.53182	0.07935
3228.60314	0.07951
3226.67447	0.07966
3224.74579	0.07977
3222.81712	0.07987
3220.88844	0.08000
3218.95976	0.08015
3217.03109	0.08030
3215.10241	0.08042
3213.17374	0.08054
3211.24506	0.08065
3209.31639	0.08080
3207.38771	0.08097
3205.45903	0.08116
3203.53036	0.08132
3201.60168	0.08146
3199.67301	0.08159
3197.74433	0.08171
3195.81566	0.08184
3193.88698	0.08199
3191.95830	0.08216
3190.02963	0.08232
3188.10095	0.08247
3186.17228	0.08261
3184.24360	0.08275
3182.31493	0.08287
3180.38625	0.08299
3178.45757	0.08316
3176.52890	0.08335
3174.60022	0.08352
3172.67155	0.08366
3170.74287	0.08378
3168.81420	0.08389
3166.88552	0.08400
3164.95684	0.08415
3163.02817	0.08431
3161.09949	0.08446
3159.17082	0.08461
3157.24214	0.08480
3155.31347	0.08498
3153.38479	0.08513
3151.45611	0.08528
3149.52744	0.08542
3147.59876	0.08555
3145.67009	0.08569
3143.74141	0.08581
3141.81274	0.08593
3139.88406	0.08606
3137.95538	0.08622
3136.02671	0.08640
3134.09803	0.08655
3132.16936	0.08667
3130.24068	0.08678
3128.31201	0.08692
3126.38333	0.08707
3124.45465	0.08724
3122.52598	0.08739
3120.59730	0.08752
3118.66863	0.08765
3116.73995	0.08781
3114.81128	0.08799
3112.88260	0.08814
3110.95392	0.08825
3109.02525	0.08836
3107.09657	0.08851
3105.16790	0.08869
3103.23922	0.08886
3101.31055	0.08902
3099.38187	0.08913
3097.45319	0.08923
3095.52452	0.08936
3093.59584	0.08953
3091.66717	0.08970
3089.73849	0.08986
3087.80982	0.08999
3085.88114	0.09010
3083.95246	0.09024
3082.02379	0.09039
3080.09511	0.09052
3078.16644	0.09065
3076.23776	0.09082
3074.30909	0.09101
3072.38041	0.09117
3070.45173	0.09131
3068.52306	0.09143
3066.59438	0.09156
3064.66571	0.09171
3062.73703	0.09185
3060.80836	0.09198
3058.87968	0.09211
3056.95100	0.09225
3055.02233	0.09239
3053.09365	0.09253
3051.16498	0.09267
3049.23630	0.09282
3047.30763	0.09296
3045.37895	0.09310
3043.45027	0.09324
3041.52160	0.09338
3039.59292	0.09352
3037.66425	0.09365
3035.73557	0.09378
3033.80690	0.09392
3031.87822	0.09407
3029.94954	0.09420
3028.02087	0.09435
3026.09219	0.09452
3024.16352	0.09471
3022.23484	0.09488
3020.30617	0.09501
3018.37749	0.09514
3016.44881	0.09527
3014.52014	0.09538
3012.59146	0.09549
3010.66279	0.09564
3008.73411	0.09580
3006.80544	0.09593
3004.87676	0.09607
3002.94808	0.09623
3001.01941	0.09640
2999.09073	0.09653
2997.16206	0.09665
2995.23338	0.09678
2993.30471	0.09693
2991.37603	0.09708
2989.44735	0.09722
2987.51868	0.09732
2985.59000	0.09741
2983.66133	0.09750
2981.73265	0.09760
2979.80398	0.09768
2977.87530	0.09775
2975.94662	0.09779
2974.01795	0.09780
2972.08927	0.09777
2970.16060	0.09774
2968.23192	0.09774
2966.30325	0.09775
2964.37457	0.09779
2962.44589	0.09786
2960.51722	0.09797
2958.58854	0.09813
2956.65987	0.09830
2954.73119	0.09848
2952.80252	0.09865
2950.87384	0.09881
2948.94516	0.09895
2947.01649	0.09906
2945.08781	0.09917
2943.15914	0.09927
2941.23046	0.09932
2939.30179	0.09932
2937.37311	0.09930
2935.44443	0.09930
2933.51576	0.09928
2931.58708	0.09920
2929.65841	0.09910
2927.72973	0.09903
2925.80106	0.09900
2923.87238	0.09901
2921.94370	0.09904
2920.01503	0.09909
2918.08635	0.09919
2916.15768	0.09946
2914.22900	0.09991
2912.30033	0.10046
2910.37165	0.10095
2908.44297	0.10134
2906.51430	0.10163
2904.58562	0.10185
2902.65695	0.10205
2900.72827	0.10226
2898.79960	0.10251
2896.87092	0.10276
2894.94224	0.10299
2893.01357	0.10319
2891.08489	0.10337
2889.15622	0.10353
2887.22754	0.10371
2885.29887	0.10390
2883.37019	0.10409
2881.44151	0.10425
2879.51284	0.10440
2877.58416	0.10456
2875.65549	0.10470
2873.72681	0.10481
2871.79814	0.10494
2869.86946	0.10509
2867.94078	0.10525
2866.01211	0.10538
2864.08343	0.10546
2862.15476	0.10552
2860.22608	0.10555
2858.29741	0.10554
2856.36873	0.10550
2854.44005	0.10544
2852.51138	0.10539
2850.58270	0.10546
2848.65403	0.10575
2846.72535	0.10621
2844.79668	0.10668
2842.86800	0.10710
2840.93932	0.10745
2839.01065	0.10776
2837.08197	0.10802
2835.15330	0.10825
2833.22462	0.10849
2831.29595	0.10872
2829.36727	0.10892
2827.43859	0.10909
2825.50992	0.10926
2823.58124	0.10942
2821.65257	0.10956
2819.72389	0.10972
2817.79522	0.10993
2815.86654	0.11014
2813.93786	0.11028
2812.00919	0.11039
2810.08051	0.11055
2808.15184	0.11073
2806.22316	0.11091
2804.29449	0.11110
2802.36581	0.11129
2800.43713	0.11145
2798.50846	0.11159
2796.57978	0.11173
2794.65111	0.11188
2792.72243	0.11201
2790.79376	0.11214
2788.86508	0.11230
2786.93640	0.11251
2785.00773	0.11273
2783.07905	0.11289
2781.15038	0.11300
2779.22170	0.11313
2777.29303	0.11329
2775.36435	0.11345
2773.43567	0.11361
2771.50700	0.11378
2769.57832	0.11392
2767.64965	0.11404
2765.72097	0.11417
2763.79230	0.11431
2761.86362	0.11446
2759.93494	0.11463
2758.00627	0.11479
2756.07759	0.11497
2754.14892	0.11515
2752.22024	0.11534
2750.29157	0.11552
2748.36289	0.11567
2746.43421	0.11579
2744.50554	0.11591
2742.57686	0.11606
2740.64819	0.11621
2738.71951	0.11637
2736.79084	0.11653
2734.86216	0.11667
2732.93348	0.11680
2731.00481	0.11694
2729.07613	0.11709
2727.14746	0.11725
2725.21878	0.11740
2723.29011	0.11755
2721.36143	0.11771
2719.43275	0.11786
2717.50408	0.11801
2715.57540	0.11814
2713.64673	0.11829
2711.71805	0.11843
2709.78938	0.11856
2707.86070	0.11872
2705.93202	0.11890
2704.00335	0.11907
2702.07467	0.11923
2700.14600	0.11940
2698.21732	0.11955
2696.28865	0.11969
2694.35997	0.11982
2692.43129	0.11993
2690.50262	0.12005
2688.57394	0.12021
2686.64527	0.12038
2684.71659	0.12056
2682.78792	0.12072
2680.85924	0.12087
2678.93056	0.12103
2677.00189	0.12116
2675.07321	0.12127
2673.14454	0.12142
2671.21586	0.12160
2669.28719	0.12173
2667.35851	0.12183
2665.42983	0.12195
2663.50116	0.12210
2661.57248	0.12227
2659.64381	0.12244
2657.71513	0.12262
2655.78646	0.12279
2653.85778	0.12294
2651.92910	0.12311
2650.00043	0.12330
2648.07175	0.12347
2646.14308	0.12360
2644.21440	0.12371
2642.28573	0.12384
2640.35705	0.12401
2638.42837	0.12417
2636.49970	0.12431
2634.57102	0.12446
2632.64235	0.12465
2630.71367	0.12488
2628.78500	0.12508
2626.85632	0.12523
2624.92764	0.12536
2622.99897	0.12551
2621.07029	0.12566
2619.14162	0.12580
2617.21294	0.12595
2615.28427	0.12613
2613.35559	0.12630
2611.42691	0.12649
2609.49824	0.12668
2607.56956	0.12686
2605.64089	0.12701
2603.71221	0.12714
2601.78354	0.12727
2599.85486	0.12741
2597.92618	0.12757
2595.99751	0.12777
2594.06883	0.12795
2592.14016	0.12808
2590.21148	0.12821
2588.28281	0.12838
2586.35413	0.12857
2584.42545	0.12874
2582.49678	0.12886
2580.56810	0.12896
2578.63943	0.12909
2576.71075	0.12926
2574.78208	0.12943
2572.85340	0.12960
2570.92472	0.12978
2568.99605	0.12994
2567.06737	0.13008
2565.13870	0.13022
2563.21002	0.13039
2561.28135	0.13055
2559.35267	0.13072
2557.42399	0.13091
2555.49532	0.13110
2553.56664	0.13125
2551.63797	0.13140
2549.70929	0.13155
2547.78062	0.13167
2545.85194	0.13179
2543.92326	0.13196
2541.99459	0.13215
2540.06591	0.13230
2538.13724	0.13241
2536.20856	0.13253
2534.27989	0.13266
2532.35121	0.13283
2530.42253	0.13301
2528.49386	0.13317
2526.56518	0.13332
2524.63651	0.13345
2522.70783	0.13360
2520.77916	0.13378
2518.85048	0.13397
2516.92181	0.13413
2514.99313	0.13428
2513.06445	0.13446
2511.13578	0.13466
2509.20710	0.13486
2507.27843	0.13502
2505.34975	0.13518
2503.42108	0.13532
2501.49240	0.13547
2499.56372	0.13566
2497.63505	0.13587
2495.70637	0.13606
2493.77770	0.13623
2491.84902	0.13639
2489.92035	0.13653
2487.99167	0.13666
2486.06299	0.13682
2484.13432	0.13701
2482.20564	0.13720
2480.27697	0.13740
2478.34829	0.13760
2476.41962	0.13776
2474.49094	0.13791
2472.56226	0.13808
2470.63359	0.13825
2468.70491	0.13842
2466.77624	0.13861
2464.84756	0.13880
2462.91889	0.13896
2460.99021	0.13912
2459.06153	0.13928
2457.13286	0.13943
2455.20418	0.13962
2453.27551	0.13980
2451.34683	0.13994
2449.41816	0.14007
2447.48948	0.14022
2445.56080	0.14039
2443.63213	0.14056
2441.70345	0.14076
2439.77478	0.14095
2437.84610	0.14111
2435.91743	0.14124
2433.98875	0.14138
2432.06007	0.14155
2430.13140	0.14174
2428.20272	0.14189
2426.27405	0.14204
2424.34537	0.14218
2422.41670	0.14234
2420.48802	0.14252
2418.55934	0.14272
2416.63067	0.14288
2414.70199	0.14301
2412.77332	0.14317
2410.84464	0.14335
2408.91597	0.14353
2406.98729	0.14369
2405.05861	0.14384
2403.12994	0.14400
2401.20126	0.14415
2399.27259	0.14433
2397.34391	0.14452
2395.41524	0.14469
2393.48656	0.14483
2391.55788	0.14499
2389.62921	0.14516
2387.70053	0.14533
2385.77186	0.14549
2383.84318	0.14565
2381.91451	0.14579
2379.98583	0.14589
2378.05715	0.14593
2376.12848	0.14594
2374.19980	0.14594
2372.27113	0.14598
2370.34245	0.14605
2368.41378	0.14611
2366.48510	0.14618
2364.55642	0.14630
2362.62775	0.14644
2360.69907	0.14660
2358.77040	0.14680
2356.84172	0.14702
2354.91305	0.14727
2352.98437	0.14757
2351.05569	0.14792
2349.12702	0.14820
2347.19834	0.14832
2345.26967	0.14834
2343.34099	0.14837
2341.41232	0.14845
2339.48364	0.14855
2337.55496	0.14870
2335.62629	0.14889
2333.69761	0.14907
2331.76894	0.14923
2329.84026	0.14940
2327.91159	0.14962
2325.98291	0.14987
2324.05423	0.15013
2322.12556	0.15037
2320.19688	0.15060
2318.26821	0.15080
2316.33953	0.15099
2314.41086	0.15122
2312.48218	0.15146
2310.55350	0.15168
2308.62483	0.15187
2306.69615	0.15202
2304.76748	0.15216
2302.83880	0.15231
2300.91013	0.15252
2298.98145	0.15273
2297.05277	0.15291
2295.12410	0.15307
2293.19542	0.15322
2291.26675	0.15340
2289.33807	0.15363
2287.40940	0.15381
2285.48072	0.15393
2283.55204	0.15407
2281.62337	0.15426
2279.69469	0.15443
2277.76602	0.15457
2275.83734	0.15474
2273.90867	0.15494
2271.97999	0.15513
2270.05131	0.15531
2268.12264	0.15551
2266.19396	0.15569
2264.26529	0.15587
2262.33661	0.15601
2260.40794	0.15614
2258.47926	0.15629
2256.55058	0.15648
2254.62191	0.15669
2252.69323	0.15687
2250.76456	0.15701
2248.83588	0.15715
2246.90721	0.15729
2244.97853	0.15742
2243.04985	0.15754
2241.12118	0.15772
2239.19250	0.15795
2237.26383	0.15817
2235.33515	0.15833
2233.40648	0.15847
2231.47780	0.15863
2229.54912	0.15881
2227.62045	0.15900
2225.69177	0.15919
2223.76310	0.15936
2221.83442	0.15949
2219.90575	0.15959
2217.97707	0.15973
2216.04839	0.15990
2214.11972	0.16007
2212.19104	0.16022
2210.26237	0.16039
2208.33369	0.16058
2206.40502	0.16076
2204.47634	0.16090
2202.54766	0.16102
2200.61899	0.16118
2198.69031	0.16137
2196.76164	0.16155
2194.83296	0.16170
2192.90429	0.16185
2190.97561	0.16201
2189.04693	0.16216
2187.11826	0.16232
2185.18958	0.16250
2183.26091	0.16268
2181.33223	0.16284
2179.40356	0.16300
2177.47488	0.16315
2175.54620	0.16331
2173.61753	0.16348
2171.68885	0.16366
2169.76018	0.16383
2167.83150	0.16399
2165.90283	0.16414
2163.97415	0.16431
2162.04547	0.16449
2160.11680	0.16468
2158.18812	0.16488
2156.25945	0.16505
2154.33077	0.16522
2152.40210	0.16538
2150.47342	0.16556
2148.54474	0.16574
2146.61607	0.16595
2144.68739	0.16613
2142.75872	0.16625
2140.83004	0.16636
2138.90137	0.16651
2136.97269	0.16666
2135.04401	0.16682
2133.11534	0.16701
2131.18666	0.16724
2129.25799	0.16746
2127.32931	0.16762
2125.40064	0.16774
2123.47196	0.16789
2121.54328	0.16806
2119.61461	0.16822
2117.68593	0.16836
2115.75726	0.16849
2113.82858	0.16865
2111.89991	0.16889
2109.97123	0.16911
2108.04255	0.16926
2106.11388	0.16939
2104.18520	0.16956
2102.25653	0.16975
2100.32785	0.16991
2098.39918	0.17004
2096.47050	0.17015
2094.54182	0.17030
2092.61315	0.17047
2090.68447	0.17065
2088.75580	0.17083
2086.82712	0.17102
2084.89845	0.17121
2082.96977	0.17139
2081.04109	0.17153
2079.11242	0.17168
2077.18374	0.17185
2075.25507	0.17205
2073.32639	0.17225
2071.39772	0.17243
2069.46904	0.17258
2067.54036	0.17274
2065.61169	0.17291
2063.68301	0.17305
2061.75434	0.17320
2059.82566	0.17337
2057.89699	0.17351
2055.96831	0.17363
2054.03963	0.17380
2052.11096	0.17404
2050.18228	0.17425
2048.25361	0.17441
2046.32493	0.17455
2044.39626	0.17469
2042.46758	0.17483
2040.53890	0.17500
2038.61023	0.17521
2036.68155	0.17543
2034.75288	0.17560
2032.82420	0.17574
2030.89553	0.17589
2028.96685	0.17606
2027.03817	0.17622
2025.10950	0.17637
2023.18082	0.17654
2021.25215	0.17672
2019.32347	0.17690
2017.39480	0.17707
2015.46612	0.17727
2013.53744	0.17751
2011.60877	0.17769
2009.68009	0.17781
2007.75142	0.17798
2005.82274	0.17820
2003.89407	0.17837
2001.96539	0.17849
2000.03671	0.17861
1998.10804	0.17877
1996.17936	0.17895
1994.25069	0.17907
1992.32201	0.17918
1990.39334	0.17935
1988.46466	0.17957
1986.53598	0.17974
1984.60731	0.17986
1982.67863	0.17999
1980.74996	0.18015
1978.82128	0.18031
1976.89261	0.18044
1974.96393	0.18054
1973.03525	0.18067
1971.10658	0.18084
1969.17790	0.18096
1967.24923	0.18106
1965.32055	0.18122
1963.39188	0.18143
1961.46320	0.18157
1959.53452	0.18168
1957.60585	0.18186
1955.67717	0.18209
1953.74850	0.18229
1951.81982	0.18245
1949.89115	0.18261
1947.96247	0.18277
1946.03379	0.18289
1944.10512	0.18301
1942.17644	0.18319
1940.24777	0.18339
1938.31909	0.18355
1936.39042	0.18370
1934.46174	0.18386
1932.53306	0.18400
1930.60439	0.18414
1928.67571	0.18435
1926.74704	0.18454
1924.81836	0.18465
1922.88969	0.18475
1920.96101	0.18486
1919.03233	0.18493
1917.10366	0.18513
1915.17498	0.18548
1913.24631	0.18570
1911.31763	0.18579
1909.38896	0.18595
1907.46028	0.18617
1905.53160	0.18633
1903.60293	0.18646
1901.67425	0.18659
1899.74558	0.18674
1897.81690	0.18690
1895.88823	0.18706
1893.95955	0.18723
1892.03087	0.18736
1890.10220	0.18745
1888.17352	0.18760
1886.24485	0.18779
1884.31617	0.18797
1882.38750	0.18815
1880.45882	0.18831
1878.53014	0.18845
1876.60147	0.18861
1874.67279	0.18879
1872.74412	0.18890
1870.81544	0.18890
1868.88677	0.18892
1866.95809	0.18914
1865.02941	0.18951
1863.10074	0.18983
1861.17206	0.19004
1859.24339	0.19018
1857.31471	0.19033
1855.38604	0.19050
1853.45736	0.19067
1851.52868	0.19082
1849.60001	0.19093
1847.67133	0.19094
1845.74266	0.19087
1843.81398	0.19098
1841.88531	0.19137
1839.95663	0.19174
1838.02795	0.19196
1836.09928	0.19216
1834.17060	0.19234
1832.24193	0.19240
1830.31325	0.19244
1828.38458	0.19259
1826.45590	0.19277
1824.52722	0.19296
1822.59855	0.19321
1820.66987	0.19345
1818.74120	0.19365
1816.81252	0.19384
1814.88385	0.19394
1812.95517	0.19396
1811.02649	0.19401
1809.09782	0.19417
1807.16914	0.19439
1805.24047	0.19454
1803.31179	0.19457
1801.38312	0.19458
1799.45444	0.19473
1797.52576	0.19495
1795.59709	0.19504
1793.66841	0.19499
1791.73974	0.19510
1789.81106	0.19542
1787.88239	0.19567
1785.95371	0.19575
1784.02503	0.19582
1782.09636	0.19594
1780.16768	0.19609
1778.23901	0.19627
1776.31033	0.19632
1774.38166	0.19617
1772.45298	0.19607
1770.52430	0.19620
1768.59563	0.19651
1766.66695	0.19687
1764.73828	0.19708
1762.80960	0.19707
1760.88093	0.19711
1758.95225	0.19725
1757.02357	0.19736
1755.09490	0.19738
1753.16622	0.19719
1751.23755	0.19693
1749.30887	0.19694
1747.38020	0.19711
1745.45152	0.19719
1743.52284	0.19720
1741.59417	0.19716
1739.66549	0.19716
1737.73682	0.19714
1735.80814	0.19689
1733.87947	0.19677
1731.95079	0.19713
1730.02211	0.19764
1728.09344	0.19801
1726.16476	0.19823
1724.23609	0.19836
1722.30741	0.19839
1720.37874	0.19823
1718.45006	0.19803
1716.52138	0.19816
1714.59271	0.19860
1712.66403	0.19903
1710.73536	0.19928
1708.80668	0.19932
1706.87801	0.19925
1704.94933	0.19924
1703.02065	0.19905
1701.09198	0.19869
1699.16330	0.19866
1697.23463	0.19894
1695.30595	0.19928
1693.37728	0.19972
1691.44860	0.19997
1689.51992	0.19993
1687.59125	0.19969
1685.66257	0.19931
1683.73390	0.19926
1681.80522	0.19968
1679.87655	0.20006
1677.94787	0.20004
1676.01919	0.19986
1674.09052	0.19986
1672.16184	0.19991
1670.23317	0.19993
1668.30449	0.20018
1666.37582	0.20050
1664.44714	0.20051
1662.51846	0.20047
1660.58979	0.20066
1658.66111	0.20082
1656.73244	0.20052
1654.80376	0.19986
1652.87509	0.19964
1650.94641	0.20011
1649.01773	0.20043
1647.08906	0.20046
1645.16038	0.20072
1643.23171	0.20114
1641.30303	0.20134
1639.37436	0.20120
1637.44568	0.20086
1635.51700	0.20075
1633.58833	0.20111
1631.65965	0.20149
1629.73098	0.20155
1627.80230	0.20144
1625.87363	0.20123
1623.94495	0.20089
1622.01627	0.20062
1620.08760	0.20057
1618.15892	0.20075
1616.23025	0.20128
1614.30157	0.20206
1612.37290	0.20268
1610.44422	0.20302
1608.51554	0.20327
1606.58687	0.20349
1604.65819	0.20371
1602.72952	0.20392
1600.80084	0.20413
1598.87217	0.20431
1596.94349	0.20446
1595.01481	0.20461
1593.08614	0.20481
1591.15746	0.20503
1589.22879	0.20526
1587.30011	0.20547
1585.37144	0.20564
1583.44276	0.20578
1581.51408	0.20588
1579.58541	0.20583
1577.65673	0.20569
1575.72806	0.20577
1573.79938	0.20606
1571.87071	0.20616
1569.94203	0.20617
1568.01335	0.20637
1566.08468	0.20667
1564.15600	0.20681
1562.22733	0.20657
1560.29865	0.20600
1558.36998	0.20588
1556.44130	0.20644
1554.51262	0.20710
1552.58395	0.20748
1550.65527	0.20769
1548.72660	0.20786
1546.79792	0.20783
1544.86925	0.20754
1542.94057	0.20722
1541.01189	0.20710
1539.08322	0.20743
1537.15454	0.20801
1535.22587	0.20826
1533.29719	0.20829
1531.36852	0.20849
1529.43984	0.20862
1527.51116	0.20857
1525.58249	0.20851
1523.65381	0.20833
1521.72514	0.20813
1519.79646	0.20827
1517.86779	0.20863
1515.93911	0.20893
1514.01043	0.20916
1512.08176	0.20921
1510.15308	0.20895
1508.22441	0.20853
1506.29573	0.20854
1504.36706	0.20917
1502.43838	0.20967
1500.50970	0.20963
1498.58103	0.20935
1496.65235	0.20928
1494.72368	0.20944
1492.79500	0.20943
1490.86633	0.20920
1488.93765	0.20911
1487.00897	0.20926
1485.08030	0.20941
1483.15162	0.20936
1481.22295	0.20920
1479.29427	0.20895
1477.36560	0.20853
1475.43692	0.20800
1473.50824	0.20752
1471.57957	0.20733
1469.65089	0.20736
1467.72222	0.20716
1465.79354	0.20673
1463.86487	0.20646
1461.93619	0.20630
1460.00751	0.20580
1458.07884	0.20512
1456.15016	0.20498
1454.22149	0.20541
1452.29281	0.20576
1450.36414	0.20581
1448.43546	0.20579
1446.50678	0.20589
1444.57811	0.20610
1442.64943	0.20632
1440.72076	0.20638
1438.79208	0.20617
1436.86341	0.20607
1434.93473	0.20647
1433.00605	0.20693
1431.07738	0.20709
1429.14870	0.20724
1427.22003	0.20743
1425.29135	0.20748
1423.36268	0.20739
1421.43400	0.20717
1419.50532	0.20696
1417.57665	0.20711
1415.64797	0.20751
1413.71930	0.20776
1411.79062	0.20782
1409.86195	0.20785
1407.93327	0.20780
1406.00459	0.20768
1404.07592	0.20755
1402.14724	0.20740
1400.21857	0.20727
1398.28989	0.20720
1396.36122	0.20711
1394.43254	0.20708
1392.50386	0.20721
1390.57519	0.20718
1388.64651	0.20680
1386.71784	0.20643
1384.78916	0.20632
1382.86049	0.20636
1380.93181	0.20640
1379.00313	0.20639
1377.07446	0.20630
1375.14578	0.20625
1373.21711	0.20633
1371.28843	0.20645
1369.35976	0.20649
1367.43108	0.20649
1365.50240	0.20642
1363.57373	0.20630
1361.64505	0.20630
1359.71638	0.20640
1357.78770	0.20649
1355.85903	0.20655
1353.93035	0.20661
1352.00167	0.20667
1350.07300	0.20679
1348.14432	0.20692
1346.21565	0.20700
1344.28697	0.20702
1342.35830	0.20696
1340.42962	0.20680
1338.50094	0.20671
1336.57227	0.20674
1334.64359	0.20679
1332.71492	0.20675
1330.78624	0.20660
1328.85757	0.20637
1326.92889	0.20611
1325.00021	0.20589
1323.07154	0.20574
1321.14286	0.20560
1319.21419	0.20544
1317.28551	0.20528
1315.35684	0.20511
1313.42816	0.20494
1311.49948	0.20481
1309.57081	0.20465
1307.64213	0.20438
1305.71346	0.20409
1303.78478	0.20385
1301.85611	0.20365
1299.92743	0.20348
1297.99875	0.20329
1296.07008	0.20306
1294.14140	0.20282
1292.21273	0.20261
1290.28405	0.20242
1288.35538	0.20225
1286.42670	0.20211
1284.49802	0.20197
1282.56935	0.20181
1280.64067	0.20159
1278.71200	0.20132
1276.78332	0.20097
1274.85465	0.20051
1272.92597	0.19990
1270.99729	0.19914
1269.06862	0.19827
1267.13994	0.19736
1265.21127	0.19656
1263.28259	0.19602
1261.35392	0.19578
1259.42524	0.19583
1257.49656	0.19604
1255.56789	0.19623
1253.63921	0.19622
1251.71054	0.19602
1249.78186	0.19572
1247.85319	0.19541
1245.92451	0.19507
1243.99583	0.19473
1242.06716	0.19435
1240.13848	0.19392
1238.20981	0.19344
1236.28113	0.19290
1234.35246	0.19234
1232.42378	0.19172
1230.49510	0.19107
1228.56643	0.19045
1226.63775	0.18990
1224.70908	0.18940
1222.78040	0.18895
1220.85173	0.18852
1218.92305	0.18807
1216.99437	0.18760
1215.06570	0.18706
1213.13702	0.18644
1211.20835	0.18585
1209.27967	0.18525
1207.35100	0.18460
1205.42232	0.18394
1203.49364	0.18334
1201.56497	0.18280
1199.63629	0.18228
1197.70762	0.18171
1195.77894	0.18106
1193.85027	0.18038
1191.92159	0.17971
1189.99291	0.17905
1188.06424	0.17838
1186.13556	0.17765
1184.20689	0.17684
1182.27821	0.17603
1180.34954	0.17521
1178.42086	0.17432
1176.49218	0.17340
1174.56351	0.17251
1172.63483	0.17165
1170.70616	0.17078
1168.77748	0.16993
1166.84881	0.16907
1164.92013	0.16819
1162.99145	0.16729
1161.06278	0.16641
1159.13410	0.16556
1157.20543	0.16477
1155.27675	0.16396
1153.34808	0.16314
1151.41940	0.16236
1149.49072	0.16159
1147.56205	0.16082
1145.63337	0.16002
1143.70470	0.15918
1141.77602	0.15828
1139.84735	0.15728
1137.91867	0.15613
1135.98999	0.15483
1134.06132	0.15334
1132.13264	0.15165
1130.20397	0.14980
1128.27529	0.14775
1126.34662	0.14544
1124.41794	0.14304
1122.48926	0.14071
1120.56059	0.13836
1118.63191	0.13603
1116.70324	0.13390
1114.77456	0.13200
1112.84589	0.13035
1110.91721	0.12902
1108.98853	0.12803
1107.05986	0.12728
1105.13118	0.12677
1103.20251	0.12660
1101.27383	0.12673
1099.34516	0.12710
1097.41648	0.12768
1095.48780	0.12843
1093.55913	0.12928
1091.63045	0.13016
1089.70178	0.13101
1087.77310	0.13178
1085.84443	0.13248
1083.91575	0.13307
1081.98707	0.13350
1080.05840	0.13379
1078.12972	0.13395
1076.20105	0.13403
1074.27237	0.13415
1072.34370	0.13434
1070.41502	0.13445
1068.48634	0.13453
1066.55767	0.13470
1064.62899	0.13491
1062.70032	0.13504
1060.77164	0.13513
1058.84297	0.13533
1056.91429	0.13568
1054.98561	0.13605
1053.05694	0.13636
1051.12826	0.13669
1049.19959	0.13707
1047.27091	0.13743
1045.34224	0.13775
1043.41356	0.13815
1041.48488	0.13861
1039.55621	0.13905
1037.62753	0.13942
1035.69886	0.13976
1033.77018	0.14011
1031.84151	0.14049
1029.91283	0.14085
1027.98415	0.14119
1026.05548	0.14153
1024.12680	0.14187
1022.19813	0.14218
1020.26945	0.14249
1018.34078	0.14287
1016.41210	0.14339
1014.48342	0.14395
1012.55475	0.14446
1010.62607	0.14498
1008.69740	0.14552
1006.76872	0.14610
1004.84005	0.14669
1002.91137	0.14719
1000.98269	0.14756
999.05402	0.14788
997.12534	0.14812
995.19667	0.14825
993.26799	0.14833
991.33932	0.14844
989.41064	0.14854
987.48196	0.14861
985.55329	0.14865
983.62461	0.14863
981.69594	0.14854
979.76726	0.14833
977.83859	0.14804
975.90991	0.14781
973.98123	0.14771
972.05256	0.14771
970.12388	0.14769
968.19521	0.14755
966.26653	0.14730
964.33786	0.14706
962.40918	0.14686
960.48050	0.14670
958.55183	0.14656
956.62315	0.14644
954.69448	0.14629
952.76580	0.14607
950.83713	0.14584
948.90845	0.14562
946.97977	0.14542
945.05110	0.14524
943.12242	0.14500
941.19375	0.14462
939.26507	0.14415
937.33640	0.14367
935.40772	0.14318
933.47904	0.14269
931.55037	0.14227
929.62169	0.14183
927.69302	0.14128
925.76434	0.14066
923.83567	0.14008
921.90699	0.13950
919.97831	0.13888
918.04964	0.13824
916.12096	0.13764
914.19229	0.13699
912.26361	0.13616
910.33494	0.13527
908.40626	0.13446
906.47758	0.13379
904.54891	0.13324
902.62023	0.13272
900.69156	0.13215
898.76288	0.13152
896.83421	0.13096
894.90553	0.13047
892.97685	0.13003
891.04818	0.12960
889.11950	0.12919
887.19083	0.12881
885.26215	0.12837
883.33348	0.12785
881.40480	0.12743
879.47612	0.12715
877.54745	0.12686
875.61877	0.12651
873.69010	0.12621
871.76142	0.12603
869.83275	0.12591
867.90407	0.12575
865.97539	0.12552
864.04672	0.12530
862.11804	0.12514
860.18937	0.12502
858.26069	0.12486
856.33202	0.12461
854.40334	0.12439
852.47466	0.12423
850.54599	0.12403
848.61731	0.12378
846.68864	0.12345
844.75996	0.12311
842.83129	0.12286
840.90261	0.12269
838.97394	0.12241
837.04526	0.12197
835.11658	0.12136
833.18791	0.12057
831.25923	0.11956
829.33056	0.11842
827.40188	0.11732
825.47321	0.11631
823.54453	0.11534
821.61585	0.11445
819.68718	0.11374
817.75850	0.11319
815.82983	0.11277
813.90115	0.11248
811.97248	0.11218
810.04380	0.11185
808.11512	0.11161
806.18645	0.11154
804.25777	0.11161
802.32910	0.11163
800.40042	0.11144
798.47175	0.11096
796.54307	0.11034
794.61439	0.10976
792.68572	0.10926
790.75704	0.10885
788.82837	0.10857
786.89969	0.10841
784.97102	0.10829
783.04234	0.10812
781.11366	0.10784
779.18499	0.10748
777.25631	0.10707
775.32764	0.10658
773.39896	0.10612
771.47029	0.10573
769.54161	0.10538
767.61293	0.10505
765.68426	0.10471
763.75558	0.10432
761.82691	0.10387
759.89823	0.10340
757.96956	0.10291
756.04088	0.10238
754.11220	0.10181
752.18353	0.10118
750.25485	0.10043
748.32618	0.09962
746.39750	0.09883
744.46883	0.09797
742.54015	0.09698
740.61147	0.09607
738.68280	0.09554
736.75412	0.09531
734.82545	0.09523
732.89677	0.09527
730.96810	0.09539
729.03942	0.09548
727.11074	0.09554
725.18207	0.09563
723.25339	0.09581
721.32472	0.09603
719.39604	0.09622
717.46737	0.09639
715.53869	0.09668
713.61001	0.09710
711.68134	0.09753
709.75266	0.09779
707.82399	0.09787
705.89531	0.09784
703.96664	0.09767
702.03796	0.09733
700.10928	0.09692
698.18061	0.09649
696.25193	0.09600
694.32326	0.09544
692.39458	0.09493
690.46591	0.09443
688.53723	0.09387
686.60855	0.09330
684.67988	0.09282
682.75120	0.09239
680.82253	0.09190
678.89385	0.09129
676.96518	0.09062
675.03650	0.08993
673.10782	0.08921
671.17915	0.08837
669.25047	0.08740
667.32180	0.08658
665.39312	0.08594
663.46445	0.08518
661.53577	0.08422
659.60709	0.08328
657.67842	0.08246
655.74974	0.08164
653.82107	0.08075
651.89239	0.07986
649.96372	0.07905
648.03504	0.07832
646.10636	0.07754
644.17769	0.07664
642.24901	0.07564
640.32034	0.07465
638.39166	0.07370
636.46299	0.07267
634.53431	0.07140
632.60563	0.06969
630.67696	0.06722
628.74828	0.06363
626.81961	0.05914
624.89093	0.05468
622.96226	0.05114
621.03358	0.04884
619.10490	0.04758
617.17623	0.04674
615.24755	0.04591
613.31888	0.04489
611.39020	0.04385
609.46153	0.04328
607.53285	0.04332
605.60417	0.04366
603.67550	0.04419
601.74682	0.04503
599.81815	0.04608
597.88947	0.04695
595.96080	0.04751
594.03212	0.04788
592.10344	0.04817
590.17477	0.04840
588.24609	0.04850
586.31742	0.04840
584.38874	0.04818
582.46007	0.04789
580.53139	0.04752
578.60271	0.04705
576.67404	0.04647
574.74536	0.04583
572.81669	0.04514
570.88801	0.04442
568.95934	0.04373
567.03066	0.04316
565.10198	0.04284
563.17331	0.04270
561.24463	0.04246
559.31596	0.04210
557.38728	0.04175
555.45861	0.04148
553.52993	0.04131
551.60125	0.04121
549.67258	0.04109
547.74390	0.04092
545.81523	0.04074
543.88655	0.04058
541.95788	0.04043
540.02920	0.04031
538.10052	0.04013
536.17185	0.03990
534.24317	0.03969
532.31450	0.03954
530.38582	0.03937
528.45715	0.03910
526.52847	0.03871
524.59979	0.03829
522.67112	0.03790
520.74244	0.03746
518.81377	0.03685
516.88509	0.03610
514.95642	0.03548
513.02774	0.03516
511.09906	0.03504
509.17039	0.03491
507.24171	0.03476
505.31304	0.03456
503.38436	0.03416
501.45569	0.03362
499.52701	0.03311
497.59833	0.03259
495.66966	0.03200
493.74098	0.03142
491.81231	0.03089
489.88363	0.03036
487.95496	0.02977
486.02628	0.02912
484.09760	0.02849
482.16893	0.02800
480.24025	0.02753
478.31158	0.02690
476.38290	0.02624
474.45423	0.02568
472.52555	0.02518
470.59687	0.02474
468.66820	0.02437
466.73952	0.02400
464.81085	0.02365
462.88217	0.02343
460.95350	0.02331
459.02482	0.02321
457.09614	0.02316
455.16747	0.02316
453.23879	0.02313
451.31012	0.02311
449.38144	0.02311
447.45277	0.02305
445.52409	0.02283
443.59541	0.02247
441.66674	0.02208
439.73806	0.02176
437.80939	0.02148
435.88071	0.02112
433.95204	0.02062
432.02336	0.02007
430.09468	0.01950
428.16601	0.01883
426.23733	0.01803
424.30866	0.01721
422.37998	0.01646
420.45131	0.01578
418.52263	0.01517
416.59395	0.01460
414.66528	0.01397
412.73660	0.01336
410.80793	0.01288
408.87925	0.01235
406.95058	0.01162
405.02190	0.01090
403.09322	0.01034
401.16455	0.00976
399.23587	0.00912
397.30720	0.00857
395.37852	0.00816
393.44985	0.00773
391.52117	0.00716
389.59249	0.00654
387.66382	0.00609
385.73514	0.00577
383.80647	0.00537
381.87779	0.00492
379.94912	0.00457
378.02044	0.00426
376.09176	0.00386
374.16309	0.00343
372.23441	0.00302
370.30574	0.00265
368.37706	0.00234
