7496.76250	0.00231
7494.83382	0.00230
7492.90514	0.00229
7490.97647	0.00230
7489.04779	0.00232
7487.11912	0.00233
7485.19044	0.00233
7483.26177	0.00233
7481.33309	0.00233
7479.40441	0.00234
7477.47574	0.00234
7475.54706	0.00235
7473.61839	0.00236
7471.68971	0.00238
7469.76104	0.00240
7467.83236	0.00240
7465.90368	0.00239
7463.97501	0.00239
7462.04633	0.00240
7460.11766	0.00241
7458.18898	0.00242
7456.26031	0.00243
7454.33163	0.00243
7452.40295	0.00243
7450.47428	0.00243
7448.54560	0.00244
7446.61693	0.00243
7444.68825	0.00243
7442.75958	0.00245
7440.83090	0.00247
7438.90222	0.00248
7436.97355	0.00249
7435.04487	0.00249
7433.11620	0.00249
7431.18752	0.00249
7429.25885	0.00250
7427.33017	0.00250
7425.40149	0.00251
7423.47282	0.00252
7421.54414	0.00253
7419.61547	0.00254
7417.68679	0.00254
7415.75812	0.00255
7413.82944	0.00256
7411.90076	0.00257
7409.97209	0.00258
7408.04341	0.00258
7406.11474	0.00258
7404.18606	0.00258
7402.25739	0.00258
7400.32871	0.00258
7398.40003	0.00260
7396.47136	0.00261
7394.54268	0.00261
7392.61401	0.00261
7390.68533	0.00262
7388.75666	0.00264
7386.82798	0.00266
7384.89930	0.00268
7382.97063	0.00268
7381.04195	0.00267
7379.11328	0.00266
7377.18460	0.00266
7375.25593	0.00267
7373.32725	0.00269
7371.39857	0.00271
7369.46990	0.00272
7367.54122	0.00272
7365.61255	0.00272
7363.68387	0.00273
7361.75520	0.00274
7359.82652	0.00275
7357.89784	0.00276
7355.96917	0.00276
7354.04049	0.00275
7352.11182	0.00275
7350.18314	0.00276
7348.25447	0.00277
7346.32579	0.00278
7344.39711	0.00278
7342.46844	0.00278
7340.53976	0.00279
7338.61109	0.00281
7336.68241	0.00284
7334.75374	0.00285
7332.82506	0.00284
7330.89638	0.00284
7328.96771	0.00284
7327.03903	0.00285
7325.11036	0.00286
7323.18168	0.00286
7321.25301	0.00287
7319.32433	0.00288
7317.39565	0.00289
7315.46698	0.00290
7313.53830	0.00291
7311.60963	0.00292
7309.68095	0.00291
7307.75228	0.00290
7305.82360	0.00290
7303.89492	0.00292
7301.96625	0.00295
7300.03757	0.00297
7298.10890	0.00297
7296.18022	0.00297
7294.25155	0.00297
7292.32287	0.00298
7290.39419	0.00298
7288.46552	0.00298
7286.53684	0.00299
7284.60817	0.00301
7282.67949	0.00302
7280.75082	0.00302
7278.82214	0.00303
7276.89346	0.00305
7274.96479	0.00305
7273.03611	0.00305
7271.10744	0.00305
7269.17876	0.00306
7267.25009	0.00306
7265.32141	0.00307
7263.39273	0.00308
7261.46406	0.00309
7259.53538	0.00311
7257.60671	0.00312
7255.67803	0.00312
7253.74936	0.00311
7251.82068	0.00312
7249.89200	0.00313
7247.96333	0.00315
7246.03465	0.00316
7244.10598	0.00317
7242.17730	0.00318
7240.24863	0.00319
7238.31995	0.00320
7236.39127	0.00320
7234.46260	0.00319
7232.53392	0.00320
7230.60525	0.00322
7228.67657	0.00322
7226.74790	0.00320
7224.81922	0.00320
7222.89054	0.00322
7220.96187	0.00325
7219.03319	0.00326
7217.10452	0.00327
7215.17584	0.00328
7213.24717	0.00329
7211.31849	0.00329
7209.38981	0.00330
7207.46114	0.00331
7205.53246	0.00331
7203.60379	0.00331
7201.67511	0.00331
7199.74644	0.00332
7197.81776	0.00334
7195.88908	0.00335
7193.96041	0.00336
7192.03173	0.00337
7190.10306	0.00337
7188.17438	0.00337
7186.24571	0.00338
7184.31703	0.00340
7182.38835	0.00341
7180.45968	0.00341
7178.53100	0.00341
7176.60233	0.00341
7174.67365	0.00342
7172.74498	0.00343
7170.81630	0.00344
7168.88762	0.00345
7166.95895	0.00346
7165.03027	0.00348
7163.10160	0.00349
7161.17292	0.00349
7159.24425	0.00350
7157.31557	0.00352
7155.38689	0.00353
7153.45822	0.00354
7151.52954	0.00353
7149.60087	0.00352
7147.67219	0.00353
7145.74352	0.00355
7143.81484	0.00355
7141.88616	0.00355
7139.95749	0.00355
7138.02881	0.00356
7136.10014	0.00356
7134.17146	0.00357
7132.24279	0.00358
7130.31411	0.00360
7128.38543	0.00360
7126.45676	0.00359
7124.52808	0.00359
7122.59941	0.00361
7120.67073	0.00364
7118.74206	0.00366
7116.81338	0.00367
7114.88470	0.00368
7112.95603	0.00370
7111.02735	0.00371
7109.09868	0.00371
7107.17000	0.00371
7105.24133	0.00371
7103.31265	0.00372
7101.38397	0.00373
7099.45530	0.00374
7097.52662	0.00375
7095.59795	0.00374
7093.66927	0.00374
7091.74060	0.00375
7089.81192	0.00377
7087.88324	0.00379
7085.95457	0.00380
7084.02589	0.00380
7082.09722	0.00381
7080.16854	0.00382
7078.23987	0.00383
7076.31119	0.00384
7074.38251	0.00385
7072.45384	0.00386
7070.52516	0.00385
7068.59649	0.00385
7066.66781	0.00386
7064.73914	0.00385
7062.81046	0.00386
7060.88178	0.00388
7058.95311	0.00392
7057.02443	0.00392
7055.09576	0.00391
7053.16708	0.00391
7051.23841	0.00393
7049.30973	0.00394
7047.38105	0.00394
7045.45238	0.00395
7043.52370	0.00396
7041.59503	0.00397
7039.66635	0.00398
7037.73768	0.00399
7035.80900	0.00400
7033.88032	0.00401
7031.95165	0.00403
7030.02297	0.00404
7028.09430	0.00404
7026.16562	0.00405
7024.23695	0.00407
7022.30827	0.00409
7020.37959	0.00409
7018.45092	0.00409
7016.52224	0.00409
7014.59357	0.00410
7012.66489	0.00410
7010.73622	0.00411
7008.80754	0.00413
7006.87886	0.00413
7004.95019	0.00414
7003.02151	0.00415
7001.09284	0.00416
6999.16416	0.00417
6997.23549	0.00418
6995.30681	0.00419
6993.37813	0.00420
6991.44946	0.00422
6989.52078	0.00423
6987.59211	0.00424
6985.66343	0.00425
6983.73476	0.00424
6981.80608	0.00424
6979.87740	0.00423
6977.94873	0.00425
6976.02005	0.00427
6974.09138	0.00429
6972.16270	0.00430
6970.23403	0.00432
6968.30535	0.00434
6966.37667	0.00436
6964.44800	0.00435
6962.51932	0.00434
6960.59065	0.00435
6958.66197	0.00436
6956.73330	0.00436
6954.80462	0.00436
6952.87594	0.00436
6950.94727	0.00436
6949.01859	0.00437
6947.08992	0.00439
6945.16124	0.00442
6943.23257	0.00445
6941.30389	0.00447
6939.37521	0.00448
6937.44654	0.00448
6935.51786	0.00449
6933.58919	0.00450
6931.66051	0.00449
6929.73184	0.00450
6927.80316	0.00451
6925.87448	0.00451
6923.94581	0.00451
6922.01713	0.00452
6920.08846	0.00452
6918.15978	0.00452
6916.23111	0.00454
6914.30243	0.00457
6912.37375	0.00459
6910.44508	0.00459
6908.51640	0.00459
6906.58773	0.00460
6904.65905	0.00463
6902.73038	0.00465
6900.80170	0.00466
6898.87302	0.00467
6896.94435	0.00467
6895.01567	0.00467
6893.08700	0.00468
6891.15832	0.00468
6889.22965	0.00470
6887.30097	0.00471
6885.37229	0.00472
6883.44362	0.00474
6881.51494	0.00474
6879.58627	0.00474
6877.65759	0.00474
6875.72892	0.00475
6873.80024	0.00476
6871.87156	0.00478
6869.94289	0.00480
6868.01421	0.00481
6866.08554	0.00482
6864.15686	0.00483
6862.22819	0.00485
6860.29951	0.00486
6858.37083	0.00487
6856.44216	0.00488
6854.51348	0.00488
6852.58481	0.00489
6850.65613	0.00490
6848.72746	0.00490
6846.79878	0.00491
6844.87010	0.00493
6842.94143	0.00495
6841.01275	0.00495
6839.08408	0.00494
6837.15540	0.00494
6835.22673	0.00495
6833.29805	0.00498
6831.36937	0.00500
6829.44070	0.00500
6827.51202	0.00501
6825.58335	0.00501
6823.65467	0.00503
6821.72600	0.00505
6819.79732	0.00507
6817.86864	0.00507
6815.93997	0.00508
6814.01129	0.00510
6812.08262	0.00511
6810.15394	0.00512
6808.22527	0.00513
6806.29659	0.00514
6804.36791	0.00515
6802.43924	0.00515
6800.51056	0.00515
6798.58189	0.00516
6796.65321	0.00517
6794.72454	0.00519
6792.79586	0.00521
6790.86718	0.00522
6788.93851	0.00523
6787.00983	0.00524
6785.08116	0.00525
6783.15248	0.00526
6781.22381	0.00526
6779.29513	0.00527
6777.36645	0.00530
6775.43778	0.00532
6773.50910	0.00532
6771.58043	0.00532
6769.65175	0.00532
6767.72308	0.00534
6765.79440	0.00536
6763.86572	0.00536
6761.93705	0.00538
6760.00837	0.00540
6758.07970	0.00541
6756.15102	0.00541
6754.22235	0.00543
6752.29367	0.00543
6750.36499	0.00542
6748.43632	0.00543
6746.50764	0.00544
6744.57897	0.00546
6742.65029	0.00547
6740.72162	0.00548
6738.79294	0.00549
6736.86426	0.00551
6734.93559	0.00554
6733.00691	0.00555
6731.07824	0.00556
6729.14956	0.00557
6727.22089	0.00559
6725.29221	0.00560
6723.36353	0.00560
6721.43486	0.00559
6719.50618	0.00560
6717.57751	0.00564
6715.64883	0.00567
6713.72016	0.00568
6711.79148	0.00568
6709.86280	0.00569
6707.93413	0.00571
6706.00545	0.00572
6704.07678	0.00572
6702.14810	0.00572
6700.21943	0.00574
6698.29075	0.00576
6696.36207	0.00577
6694.43340	0.00579
6692.50472	0.00581
6690.57605	0.00582
6688.64737	0.00583
6686.71870	0.00584
6684.79002	0.00584
6682.86134	0.00586
6680.93267	0.00588
6679.00399	0.00589
6677.07532	0.00590
6675.14664	0.00591
6673.21797	0.00593
6671.28929	0.00594
6669.36061	0.00595
6667.43194	0.00596
6665.50326	0.00595
6663.57459	0.00596
6661.64591	0.00597
6659.71724	0.00599
6657.78856	0.00600
6655.85988	0.00601
6653.93121	0.00602
6652.00253	0.00604
6650.07386	0.00606
6648.14518	0.00609
6646.21651	0.00610
6644.28783	0.00611
6642.35915	0.00612
6640.43048	0.00613
6638.50180	0.00614
6636.57313	0.00615
6634.64445	0.00616
6632.71578	0.00617
6630.78710	0.00619
6628.85842	0.00621
6626.92975	0.00623
6625.00107	0.00625
6623.07240	0.00627
6621.14372	0.00628
6619.21505	0.00628
6617.28637	0.00629
6615.35769	0.00630
6613.42902	0.00631
6611.50034	0.00632
6609.57167	0.00632
6607.64299	0.00632
6605.71432	0.00633
6603.78564	0.00636
6601.85696	0.00638
6599.92829	0.00639
6597.99961	0.00641
6596.07094	0.00643
6594.14226	0.00645
6592.21359	0.00647
6590.28491	0.00648
6588.35623	0.00649
6586.42756	0.00648
6584.49888	0.00648
6582.57021	0.00651
6580.64153	0.00654
6578.71286	0.00655
6576.78418	0.00655
6574.85550	0.00655
6572.92683	0.00656
6570.99815	0.00658
6569.06948	0.00661
6567.14080	0.00664
6565.21213	0.00665
6563.28345	0.00667
6561.35477	0.00668
6559.42610	0.00670
6557.49742	0.00672
6555.56875	0.00673
6553.64007	0.00675
6551.71140	0.00677
6549.78272	0.00677
6547.85404	0.00677
6545.92537	0.00678
6543.99669	0.00679
6542.06802	0.00679
6540.13934	0.00679
6538.21067	0.00681
6536.28199	0.00684
6534.35331	0.00686
6532.42464	0.00689
6530.49596	0.00692
6528.56729	0.00694
6526.63861	0.00694
6524.70994	0.00694
6522.78126	0.00695
6520.85258	0.00697
6518.92391	0.00698
6516.99523	0.00701
6515.06656	0.00704
6513.13788	0.00706
6511.20921	0.00709
6509.28053	0.00709
6507.35185	0.00709
6505.42318	0.00709
6503.49450	0.00710
6501.56583	0.00711
6499.63715	0.00712
6497.70848	0.00714
6495.77980	0.00717
6493.85112	0.00720
6491.92245	0.00722
6489.99377	0.00723
6488.06510	0.00723
6486.13642	0.00723
6484.20775	0.00724
6482.27907	0.00725
6480.35039	0.00727
6478.42172	0.00728
6476.49304	0.00730
6474.56437	0.00732
6472.63569	0.00733
6470.70702	0.00735
6468.77834	0.00737
6466.84966	0.00738
6464.92099	0.00739
6462.99231	0.00741
6461.06364	0.00744
6459.13496	0.00747
6457.20629	0.00748
6455.27761	0.00749
6453.34893	0.00749
6451.42026	0.00750
6449.49158	0.00751
6447.56291	0.00754
6445.63423	0.00756
6443.70556	0.00758
6441.77688	0.00760
6439.84820	0.00761
6437.91953	0.00763
6435.99085	0.00765
6434.06218	0.00766
6432.13350	0.00767
6430.20483	0.00768
6428.27615	0.00769
6426.34747	0.00771
6424.41880	0.00773
6422.49012	0.00776
6420.56145	0.00777
6418.63277	0.00777
6416.70410	0.00779
6414.77542	0.00782
6412.84674	0.00784
6410.91807	0.00785
6408.98939	0.00786
6407.06072	0.00788
6405.13204	0.00790
6403.20337	0.00791
6401.27469	0.00791
6399.34601	0.00792
6397.41734	0.00794
6395.48866	0.00797
6393.55999	0.00800
6391.63131	0.00803
6389.70264	0.00804
6387.77396	0.00805
6385.84528	0.00807
6383.91661	0.00810
6381.98793	0.00811
6380.05926	0.00812
6378.13058	0.00813
6376.20191	0.00815
6374.27323	0.00817
6372.34455	0.00818
6370.41588	0.00819
6368.48720	0.00822
6366.55853	0.00823
6364.62985	0.00823
6362.70118	0.00823
6360.77250	0.00825
6358.84382	0.00827
6356.91515	0.00830
6354.98647	0.00832
6353.05780	0.00835
6351.12912	0.00837
6349.20045	0.00839
6347.27177	0.00840
6345.34309	0.00840
6343.41442	0.00842
6341.48574	0.00844
6339.55707	0.00846
6337.62839	0.00847
6335.69972	0.00848
6333.77104	0.00851
6331.84236	0.00854
6329.91369	0.00857
6327.98501	0.00859
6326.05634	0.00861
6324.12766	0.00862
6322.19899	0.00862
6320.27031	0.00862
6318.34163	0.00864
6316.41296	0.00867
6314.48428	0.00868
6312.55561	0.00869
6310.62693	0.00871
6308.69826	0.00875
6306.76958	0.00879
6304.84090	0.00882
6302.91223	0.00883
6300.98355	0.00883
6299.05488	0.00884
6297.12620	0.00886
6295.19753	0.00886
6293.26885	0.00887
6291.34017	0.00888
6289.41150	0.00889
6287.48282	0.00892
6285.55415	0.00895
6283.62547	0.00899
6281.69680	0.00901
6279.76812	0.00902
6277.83944	0.00903
6275.91077	0.00903
6273.98209	0.00905
6272.05342	0.00907
6270.12474	0.00909
6268.19607	0.00912
6266.26739	0.00913
6264.33871	0.00914
6262.41004	0.00917
6260.48136	0.00920
6258.55269	0.00923
6256.62401	0.00926
6254.69534	0.00927
6252.76666	0.00926
6250.83798	0.00928
6248.90931	0.00932
6246.98063	0.00936
6245.05196	0.00937
6243.12328	0.00936
6241.19461	0.00936
6239.26593	0.00939
6237.33725	0.00942
6235.40858	0.00944
6233.47990	0.00946
6231.55123	0.00948
6229.62255	0.00950
6227.69388	0.00952
6225.76520	0.00954
6223.83652	0.00955
6221.90785	0.00959
6219.97917	0.00962
6218.05050	0.00963
6216.12182	0.00966
6214.19315	0.00970
6212.26447	0.00972
6210.33579	0.00974
6208.40712	0.00975
6206.47844	0.00977
6204.54977	0.00977
6202.62109	0.00978
6200.69242	0.00980
6198.76374	0.00982
6196.83506	0.00985
6194.90639	0.00987
6192.97771	0.00990
6191.04904	0.00993
6189.12036	0.00995
6187.19169	0.00998
6185.26301	0.01001
6183.33433	0.01002
6181.40566	0.01004
6179.47698	0.01006
6177.54831	0.01007
6175.61963	0.01009
6173.69096	0.01011
6171.76228	0.01012
6169.83360	0.01013
6167.90493	0.01014
6165.97625	0.01017
6164.04758	0.01020
6162.11890	0.01023
6160.19023	0.01024
6158.26155	0.01026
6156.33287	0.01029
6154.40420	0.01032
6152.47552	0.01033
6150.54685	0.01036
6148.61817	0.01039
6146.68950	0.01042
6144.76082	0.01045
6142.83214	0.01046
6140.90347	0.01047
6138.97479	0.01048
6137.04612	0.01050
6135.11744	0.01053
6133.18877	0.01057
6131.26009	0.01059
6129.33141	0.01061
6127.40274	0.01062
6125.47406	0.01065
6123.54539	0.01069
6121.61671	0.01070
6119.68804	0.01070
6117.75936	0.01072
6115.83068	0.01076
6113.90201	0.01079
6111.97333	0.01080
6110.04466	0.01081
6108.11598	0.01083
6106.18731	0.01086
6104.25863	0.01088
6102.32995	0.01090
6100.40128	0.01092
6098.47260	0.01093
6096.54393	0.01096
6094.61525	0.01099
6092.68658	0.01102
6090.75790	0.01103
6088.82922	0.01105
6086.90055	0.01109
6084.97187	0.01111
6083.04320	0.01114
6081.11452	0.01116
6079.18585	0.01119
6077.25717	0.01120
6075.32849	0.01122
6073.39982	0.01125
6071.47114	0.01128
6069.54247	0.01131
6067.61379	0.01135
6065.68512	0.01136
6063.75644	0.01136
6061.82776	0.01137
6059.89909	0.01141
6057.97041	0.01145
6056.04174	0.01148
6054.11306	0.01152
6052.18439	0.01154
6050.25571	0.01155
6048.32703	0.01156
6046.39836	0.01156
6044.46968	0.01159
6042.54101	0.01163
6040.61233	0.01166
6038.68366	0.01167
6036.75498	0.01169
6034.82630	0.01170
6032.89763	0.01172
6030.96895	0.01175
6029.04028	0.01179
6027.11160	0.01181
6025.18293	0.01183
6023.25425	0.01187
6021.32557	0.01190
6019.39690	0.01192
6017.46822	0.01193
6015.53955	0.01196
6013.61087	0.01200
6011.68220	0.01204
6009.75352	0.01208
6007.82484	0.01211
6005.89617	0.01213
6003.96749	0.01214
6002.03882	0.01214
6000.11014	0.01216
5998.18147	0.01220
5996.25279	0.01223
5994.32411	0.01226
5992.39544	0.01227
5990.46676	0.01229
5988.53809	0.01232
5986.60941	0.01234
5984.68074	0.01236
5982.75206	0.01236
5980.82338	0.01238
5978.89471	0.01242
5976.96603	0.01246
5975.03736	0.01248
5973.10868	0.01250
5971.18001	0.01253
5969.25133	0.01255
5967.32265	0.01257
5965.39398	0.01260
5963.46530	0.01264
5961.53663	0.01267
5959.60795	0.01271
5957.67928	0.01274
5955.75060	0.01274
5953.82192	0.01274
5951.89325	0.01275
5949.96457	0.01279
5948.03590	0.01282
5946.10722	0.01286
5944.17855	0.01291
5942.24987	0.01294
5940.32119	0.01297
5938.39252	0.01298
5936.46384	0.01299
5934.53517	0.01302
5932.60649	0.01306
5930.67782	0.01310
5928.74914	0.01313
5926.82046	0.01317
5924.89179	0.01320
5922.96311	0.01322
5921.03444	0.01324
5919.10576	0.01326
5917.17709	0.01328
5915.24841	0.01331
5913.31973	0.01334
5911.39106	0.01336
5909.46238	0.01337
5907.53371	0.01339
5905.60503	0.01344
5903.67636	0.01350
5901.74768	0.01352
5899.81900	0.01353
5897.89033	0.01353
5895.96165	0.01355
5894.03298	0.01358
5892.10430	0.01361
5890.17563	0.01364
5888.24695	0.01369
5886.31827	0.01373
5884.38960	0.01374
5882.46092	0.01375
5880.53225	0.01378
5878.60357	0.01383
5876.67490	0.01386
5874.74622	0.01389
5872.81755	0.01393
5870.88887	0.01397
5868.96019	0.01399
5867.03152	0.01400
5865.10284	0.01401
5863.17417	0.01405
5861.24549	0.01408
5859.31682	0.01409
5857.38814	0.01412
5855.45946	0.01416
5853.53079	0.01420
5851.60211	0.01423
5849.67344	0.01425
5847.74476	0.01427
5845.81609	0.01431
5843.88741	0.01434
5841.95873	0.01437
5840.03006	0.01440
5838.10138	0.01444
5836.17271	0.01446
5834.24403	0.01446
5832.31536	0.01449
5830.38668	0.01455
5828.45800	0.01461
5826.52933	0.01463
5824.60065	0.01463
5822.67198	0.01465
5820.74330	0.01468
5818.81463	0.01470
5816.88595	0.01472
5814.95727	0.01475
5813.02860	0.01480
5811.09992	0.01484
5809.17125	0.01487
5807.24257	0.01489
5805.31390	0.01492
5803.38522	0.01497
5801.45654	0.01502
5799.52787	0.01504
5797.59919	0.01505
5795.67052	0.01506
5793.74184	0.01508
5791.81317	0.01510
5789.88449	0.01513
5787.95581	0.01516
5786.02714	0.01520
5784.09846	0.01523
5782.16979	0.01527
5780.24111	0.01531
5778.31244	0.01533
5776.38376	0.01536
5774.45508	0.01540
5772.52641	0.01542
5770.59773	0.01544
5768.66906	0.01547
5766.74038	0.01551
5764.81171	0.01556
5762.88303	0.01559
5760.95435	0.01562
5759.02568	0.01564
5757.09700	0.01567
5755.16833	0.01571
5753.23965	0.01575
5751.31098	0.01579
5749.38230	0.01583
5747.45362	0.01585
5745.52495	0.01586
5743.59627	0.01588
5741.66760	0.01592
5739.73892	0.01598
5737.81025	0.01603
5735.88157	0.01605
5733.95289	0.01608
5732.02422	0.01611
5730.09554	0.01614
5728.16687	0.01617
5726.23819	0.01620
5724.30952	0.01622
5722.38084	0.01624
5720.45216	0.01627
5718.52349	0.01631
5716.59481	0.01634
5714.66614	0.01638
5712.73746	0.01641
5710.80879	0.01645
5708.88011	0.01649
5706.95143	0.01654
5705.02276	0.01658
5703.09408	0.01660
5701.16541	0.01662
5699.23673	0.01666
5697.30806	0.01669
5695.37938	0.01673
5693.45070	0.01676
5691.52203	0.01679
5689.59335	0.01681
5687.66468	0.01684
5685.73600	0.01688
5683.80733	0.01692
5681.87865	0.01694
5679.94997	0.01697
5678.02130	0.01700
5676.09262	0.01704
5674.16395	0.01708
5672.23527	0.01710
5670.30660	0.01711
5668.37792	0.01714
5666.44924	0.01720
5664.52057	0.01725
5662.59189	0.01729
5660.66322	0.01732
5658.73454	0.01735
5656.80587	0.01737
5654.87719	0.01740
5652.94851	0.01745
5651.01984	0.01750
5649.09116	0.01753
5647.16249	0.01756
5645.23381	0.01760
5643.30514	0.01762
5641.37646	0.01765
5639.44778	0.01770
5637.51911	0.01774
5635.59043	0.01778
5633.66176	0.01783
5631.73308	0.01787
5629.80441	0.01790
5627.87573	0.01791
5625.94705	0.01795
5624.01838	0.01800
5622.08970	0.01804
5620.16103	0.01806
5618.23235	0.01808
5616.30368	0.01810
5614.37500	0.01813
5612.44632	0.01817
5610.51765	0.01822
5608.58897	0.01826
5606.66030	0.01828
5604.73162	0.01830
5602.80295	0.01833
5600.87427	0.01838
5598.94559	0.01843
5597.01692	0.01848
5595.08824	0.01852
5593.15957	0.01854
5591.23089	0.01856
5589.30222	0.01859
5587.37354	0.01864
5585.44486	0.01869
5583.51619	0.01871
5581.58751	0.01871
5579.65884	0.01874
5577.73016	0.01879
5575.80149	0.01885
5573.87281	0.01890
5571.94413	0.01894
5570.01546	0.01894
5568.08678	0.01896
5566.15811	0.01901
5564.22943	0.01905
5562.30076	0.01908
5560.37208	0.01911
5558.44340	0.01915
5556.51473	0.01919
5554.58605	0.01924
5552.65738	0.01928
5550.72870	0.01932
5548.80003	0.01936
5546.87135	0.01938
5544.94267	0.01940
5543.01400	0.01943
5541.08532	0.01947
5539.15665	0.01951
5537.22797	0.01954
5535.29930	0.01958
5533.37062	0.01963
5531.44194	0.01967
5529.51327	0.01969
5527.58459	0.01972
5525.65592	0.01977
5523.72724	0.01983
5521.79857	0.01988
5519.86989	0.01991
5517.94121	0.01993
5516.01254	0.01995
5514.08386	0.01999
5512.15519	0.02005
5510.22651	0.02010
5508.29784	0.02014
5506.36916	0.02018
5504.44048	0.02023
5502.51181	0.02028
5500.58313	0.02032
5498.65446	0.02036
5496.72578	0.02039
5494.79711	0.02041
5492.86843	0.02044
5490.93975	0.02048
5489.01108	0.02052
5487.08240	0.02055
5485.15373	0.02057
5483.22505	0.02061
5481.29638	0.02066
5479.36770	0.02069
5477.43902	0.02070
5475.51035	0.02074
5473.58167	0.02079
5471.65300	0.02083
5469.72432	0.02086
5467.79565	0.02090
5465.86697	0.02095
5463.93829	0.02101
5462.00962	0.02108
5460.08094	0.02112
5458.15227	0.02114
5456.22359	0.02117
5454.29492	0.02121
5452.36624	0.02126
5450.43756	0.02129
5448.50889	0.02132
5446.58021	0.02135
5444.65154	0.02138
5442.72286	0.02141
5440.79419	0.02145
5438.86551	0.02151
5436.93683	0.02155
5435.00816	0.02158
5433.07948	0.02161
5431.15081	0.02164
5429.22213	0.02168
5427.29346	0.02172
5425.36478	0.02176
5423.43610	0.02181
5421.50743	0.02187
5419.57875	0.02194
5417.65008	0.02197
5415.72140	0.02197
5413.79273	0.02197
5411.86405	0.02202
5409.93537	0.02209
5408.00670	0.02215
5406.07802	0.02220
5404.14935	0.02224
5402.22067	0.02228
5400.29200	0.02231
5398.36332	0.02237
5396.43464	0.02242
5394.50597	0.02244
5392.57729	0.02247
5390.64862	0.02252
5388.71994	0.02257
5386.79127	0.02261
5384.86259	0.02264
5382.93391	0.02269
5381.00524	0.02273
5379.07656	0.02276
5377.14789	0.02280
5375.21921	0.02284
5373.29054	0.02289
5371.36186	0.02293
5369.43318	0.02295
5367.50451	0.02299
5365.57583	0.02303
5363.64716	0.02307
5361.71848	0.02314
5359.78981	0.02320
5357.86113	0.02323
5355.93245	0.02324
5354.00378	0.02326
5352.07510	0.02330
5350.14643	0.02334
5348.21775	0.02338
5346.28908	0.02342
5344.36040	0.02347
5342.43172	0.02352
5340.50305	0.02355
5338.57437	0.02357
5336.64570	0.02363
5334.71702	0.02369
5332.78835	0.02373
5330.85967	0.02377
5328.93099	0.02382
5327.00232	0.02387
5325.07364	0.02394
5323.14497	0.02399
5321.21629	0.02402
5319.28762	0.02405
5317.35894	0.02410
5315.43026	0.02416
5313.50159	0.02422
5311.57291	0.02428
5309.64424	0.02431
5307.71556	0.02435
5305.78689	0.02439
5303.85821	0.02445
5301.92953	0.02450
5300.00086	0.02453
5298.07218	0.02455
5296.14351	0.02457
5294.21483	0.02460
5292.28616	0.02464
5290.35748	0.02469
5288.42880	0.02475
5286.50013	0.02479
5284.57145	0.02482
5282.64278	0.02488
5280.71410	0.02494
5278.78543	0.02499
5276.85675	0.02502
5274.92807	0.02505
5272.99940	0.02510
5271.07072	0.02515
5269.14205	0.02518
5267.21337	0.02521
5265.28470	0.02526
5263.35602	0.02531
5261.42734	0.02536
5259.49867	0.02539
5257.56999	0.02541
5255.64132	0.02544
5253.71264	0.02550
5251.78397	0.02555
5249.85529	0.02559
5247.92661	0.02565
5245.99794	0.02571
5244.06926	0.02575
5242.14059	0.02580
5240.21191	0.02585
5238.28324	0.02590
5236.35456	0.02596
5234.42588	0.02599
5232.49721	0.02601
5230.56853	0.02604
5228.63986	0.02608
5226.71118	0.02612
5224.78251	0.02617
5222.85383	0.02624
5220.92515	0.02629
5218.99648	0.02633
5217.06780	0.02637
5215.13913	0.02640
5213.21045	0.02643
5211.28178	0.02648
5209.35310	0.02654
5207.42442	0.02659
5205.49575	0.02663
5203.56707	0.02668
5201.63840	0.02673
5199.70972	0.02677
5197.78105	0.02681
5195.85237	0.02686
5193.92369	0.02692
5191.99502	0.02697
5190.06634	0.02701
5188.13767	0.02706
5186.20899	0.02710
5184.28032	0.02715
5182.35164	0.02720
5180.42296	0.02723
5178.49429	0.02726
5176.56561	0.02731
5174.63694	0.02738
5172.70826	0.02745
5170.77959	0.02750
5168.85091	0.02753
5166.92223	0.02755
5164.99356	0.02758
5163.06488	0.02762
5161.13621	0.02767
5159.20753	0.02772
5157.27886	0.02777
5155.35018	0.02783
5153.42150	0.02789
5151.49283	0.02794
5149.56415	0.02799
5147.63548	0.02803
5145.70680	0.02807
5143.77813	0.02812
5141.84945	0.02820
5139.92077	0.02826
5137.99210	0.02829
5136.06342	0.02833
5134.13475	0.02838
5132.20607	0.02844
5130.27740	0.02848
5128.34872	0.02852
5126.42004	0.02857
5124.49137	0.02862
5122.56269	0.02866
5120.63402	0.02868
5118.70534	0.02871
5116.77667	0.02875
5114.84799	0.02881
5112.91931	0.02887
5110.99064	0.02893
5109.06196	0.02898
5107.13329	0.02902
5105.20461	0.02907
5103.27594	0.02913
5101.34726	0.02916
5099.41858	0.02919
5097.48991	0.02924
5095.56123	0.02929
5093.63256	0.02933
5091.70388	0.02937
5089.77521	0.02943
5087.84653	0.02950
5085.91785	0.02955
5083.98918	0.02961
5082.06050	0.02966
5080.13183	0.02970
5078.20315	0.02974
5076.27448	0.02977
5074.34580	0.02979
5072.41712	0.02984
5070.48845	0.02991
5068.55977	0.02995
5066.63110	0.02997
5064.70242	0.03002
5062.77375	0.03008
5060.84507	0.03013
5058.91639	0.03019
5056.98772	0.03025
5055.05904	0.03031
5053.13037	0.03036
5051.20169	0.03040
5049.27302	0.03044
5047.34434	0.03048
5045.41566	0.03053
5043.48699	0.03059
5041.55831	0.03064
5039.62964	0.03069
5037.70096	0.03076
5035.77229	0.03082
5033.84361	0.03087
5031.91493	0.03092
5029.98626	0.03098
5028.05758	0.03102
5026.12891	0.03107
5024.20023	0.03112
5022.27156	0.03115
5020.34288	0.03119
5018.41420	0.03125
5016.48553	0.03130
5014.55685	0.03136
5012.62818	0.03141
5010.69950	0.03145
5008.77083	0.03149
5006.84215	0.03155
5004.91347	0.03161
5002.98480	0.03168
5001.05612	0.03172
4999.12745	0.03178
4997.19877	0.03184
4995.27010	0.03188
4993.34142	0.03192
4991.41274	0.03198
4989.48407	0.03203
4987.55539	0.03210
4985.62672	0.03215
4983.69804	0.03219
4981.76937	0.03222
4979.84069	0.03226
4977.91201	0.03231
4975.98334	0.03237
4974.05466	0.03244
4972.12599	0.03251
4970.19731	0.03255
4968.26864	0.03258
4966.33996	0.03261
4964.41128	0.03267
4962.48261	0.03273
4960.55393	0.03277
4958.62526	0.03282
4956.69658	0.03290
4954.76791	0.03297
4952.83923	0.03303
4950.91055	0.03306
4948.98188	0.03311
4947.05320	0.03317
4945.12453	0.03324
4943.19585	0.03330
4941.26718	0.03336
4939.33850	0.03342
4937.40982	0.03347
4935.48115	0.03351
4933.55247	0.03354
4931.62380	0.03358
4929.69512	0.03363
4927.76645	0.03369
4925.83777	0.03375
4923.90909	0.03379
4921.98042	0.03386
4920.05174	0.03394
4918.12307	0.03399
4916.19439	0.03401
4914.26572	0.03404
4912.33704	0.03409
4910.40836	0.03415
4908.47969	0.03421
4906.55101	0.03426
4904.62234	0.03434
4902.69366	0.03441
4900.76499	0.03445
4898.83631	0.03449
4896.90763	0.03452
4894.97896	0.03457
4893.05028	0.03463
4891.12161	0.03470
4889.19293	0.03479
4887.26426	0.03487
4885.33558	0.03492
4883.40690	0.03495
4881.47823	0.03499
4879.54955	0.03503
4877.62088	0.03507
4875.69220	0.03511
4873.76353	0.03515
4871.83485	0.03521
4869.90617	0.03528
4867.97750	0.03535
4866.04882	0.03540
4864.12015	0.03544
4862.19147	0.03550
4860.26280	0.03558
4858.33412	0.03565
4856.40544	0.03570
4854.47677	0.03574
4852.54809	0.03579
4850.61942	0.03585
4848.69074	0.03591
4846.76207	0.03597
4844.83339	0.03602
4842.90471	0.03607
4840.97604	0.03612
4839.04736	0.03617
4837.11869	0.03623
4835.19001	0.03630
4833.26134	0.03637
4831.33266	0.03644
4829.40398	0.03651
4827.47531	0.03657
4825.54663	0.03663
4823.61796	0.03668
4821.68928	0.03673
4819.76061	0.03677
4817.83193	0.03683
4815.90325	0.03688
4813.97458	0.03695
4812.04590	0.03703
4810.11723	0.03709
4808.18855	0.03714
4806.25988	0.03717
4804.33120	0.03722
4802.40252	0.03727
4800.47385	0.03734
4798.54517	0.03742
4796.61650	0.03749
4794.68782	0.03754
4792.75915	0.03758
4790.83047	0.03763
4788.90179	0.03768
4786.97312	0.03775
4785.04444	0.03783
4783.11577	0.03790
4781.18709	0.03795
4779.25842	0.03801
4777.32974	0.03806
4775.40106	0.03811
4773.47239	0.03817
4771.54371	0.03824
4769.61504	0.03830
4767.68636	0.03836
4765.75769	0.03841
4763.82901	0.03846
4761.90033	0.03850
4759.97166	0.03856
4758.04298	0.03864
4756.11431	0.03873
4754.18563	0.03881
4752.25696	0.03888
4750.32828	0.03897
4748.39960	0.03905
4746.47093	0.03911
4744.54225	0.03913
4742.61358	0.03915
4740.68490	0.03920
4738.75623	0.03927
4736.82755	0.03936
4734.89887	0.03942
4732.97020	0.03948
4731.04152	0.03955
4729.11285	0.03961
4727.18417	0.03966
4725.25550	0.03973
4723.32682	0.03980
4721.39814	0.03987
4719.46947	0.03993
4717.54079	0.03999
4715.61212	0.04004
4713.68344	0.04011
4711.75477	0.04018
4709.82609	0.04023
4707.89741	0.04027
4705.96874	0.04033
4704.04006	0.04040
4702.11139	0.04046
4700.18271	0.04052
4698.25404	0.04058
4696.32536	0.04064
4694.39668	0.04070
4692.46801	0.04077
4690.53933	0.04085
4688.61066	0.04093
4686.68198	0.04100
4684.75331	0.04106
4682.82463	0.04114
4680.89595	0.04121
4678.96728	0.04126
4677.03860	0.04129
4675.10993	0.04134
4673.18125	0.04140
4671.25258	0.04148
4669.32390	0.04155
4667.39522	0.04163
4665.46655	0.04172
4663.53787	0.04179
4661.60920	0.04184
4659.68052	0.04190
4657.75185	0.04196
4655.82317	0.04202
4653.89449	0.04207
4651.96582	0.04214
4650.03714	0.04222
4648.10847	0.04231
4646.17979	0.04238
4644.25112	0.04244
4642.32244	0.04251
4640.39376	0.04258
4638.46509	0.04265
4636.53641	0.04272
4634.60774	0.04280
4632.67906	0.04290
4630.75039	0.04299
4628.82171	0.04305
4626.89303	0.04309
4624.96436	0.04313
4623.03568	0.04318
4621.10701	0.04326
4619.17833	0.04334
4617.24966	0.04341
4615.32098	0.04348
4613.39230	0.04354
4611.46363	0.04362
4609.53495	0.04370
4607.60628	0.04376
4605.67760	0.04385
4603.74893	0.04395
4601.82025	0.04403
4599.89157	0.04407
4597.96290	0.04413
4596.03422	0.04420
4594.10555	0.04428
4592.17687	0.04437
4590.24820	0.04446
4588.31952	0.04452
4586.39084	0.04458
4584.46217	0.04465
4582.53349	0.04472
4580.60482	0.04477
4578.67614	0.04483
4576.74747	0.04491
4574.81879	0.04500
4572.89011	0.04508
4570.96144	0.04515
4569.03276	0.04522
4567.10409	0.04529
4565.17541	0.04539
4563.24674	0.04548
4561.31806	0.04555
4559.38938	0.04560
4557.46071	0.04566
4555.53203	0.04571
4553.60336	0.04577
4551.67468	0.04584
4549.74601	0.04593
4547.81733	0.04603
4545.88865	0.04611
4543.95998	0.04620
4542.03130	0.04629
4540.10263	0.04637
4538.17395	0.04644
4536.24528	0.04652
4534.31660	0.04661
4532.38792	0.04668
4530.45925	0.04675
4528.53057	0.04682
4526.60190	0.04691
4524.67322	0.04700
4522.74455	0.04706
4520.81587	0.04709
4518.88719	0.04714
4516.95852	0.04724
4515.02984	0.04735
4513.10117	0.04743
4511.17249	0.04752
4509.24382	0.04762
4507.31514	0.04769
4505.38646	0.04777
4503.45779	0.04783
4501.52911	0.04790
4499.60044	0.04799
4497.67176	0.04808
4495.74309	0.04817
4493.81441	0.04826
4491.88573	0.04835
4489.95706	0.04842
4488.02838	0.04849
4486.09971	0.04858
4484.17103	0.04866
4482.24236	0.04875
4480.31368	0.04883
4478.38500	0.04890
4476.45633	0.04898
4474.52765	0.04906
4472.59898	0.04914
4470.67030	0.04922
4468.74163	0.04931
4466.81295	0.04940
4464.88427	0.04949
4462.95560	0.04958
4461.02692	0.04966
4459.09825	0.04972
4457.16957	0.04980
4455.24090	0.04988
4453.31222	0.04997
4451.38354	0.05005
4449.45487	0.05016
4447.52619	0.05027
4445.59752	0.05035
4443.66884	0.05041
4441.74017	0.05049
4439.81149	0.05058
4437.88281	0.05067
4435.95414	0.05074
4434.02546	0.05083
4432.09679	0.05093
4430.16811	0.05103
4428.23944	0.05112
4426.31076	0.05120
4424.38208	0.05128
4422.45341	0.05137
4420.52473	0.05146
4418.59606	0.05156
4416.66738	0.05166
4414.73871	0.05175
4412.81003	0.05183
4410.88135	0.05191
4408.95268	0.05201
4407.02400	0.05212
4405.09533	0.05222
4403.16665	0.05230
4401.23798	0.05241
4399.30930	0.05252
4397.38062	0.05261
4395.45195	0.05268
4393.52327	0.05274
4391.59460	0.05283
4389.66592	0.05292
4387.73725	0.05302
4385.80857	0.05313
4383.87989	0.05324
4381.95122	0.05334
4380.02254	0.05341
4378.09387	0.05348
4376.16519	0.05355
4374.23652	0.05364
4372.30784	0.05376
4370.37916	0.05386
4368.45049	0.05393
4366.52181	0.05399
4364.59314	0.05410
4362.66446	0.05424
4360.73579	0.05437
4358.80711	0.05447
4356.87843	0.05453
4354.94976	0.05460
4353.02108	0.05469
4351.09241	0.05481
4349.16373	0.05492
4347.23506	0.05500
4345.30638	0.05508
4343.37770	0.05521
4341.44903	0.05535
4339.52035	0.05546
4337.59168	0.05556
4335.66300	0.05564
4333.73433	0.05571
4331.80565	0.05579
4329.87697	0.05591
4327.94830	0.05603
4326.01962	0.05613
4324.09095	0.05622
4322.16227	0.05631
4320.23360	0.05640
4318.30492	0.05650
4316.37624	0.05660
4314.44757	0.05669
4312.51889	0.05679
4310.59022	0.05690
4308.66154	0.05703
4306.73287	0.05715
4304.80419	0.05725
4302.87551	0.05735
4300.94684	0.05745
4299.01816	0.05756
4297.08949	0.05767
4295.16081	0.05776
4293.23214	0.05784
4291.30346	0.05793
4289.37478	0.05805
4287.44611	0.05819
4285.51743	0.05832
4283.58876	0.05843
4281.66008	0.05854
4279.73141	0.05864
4277.80273	0.05874
4275.87405	0.05884
4273.94538	0.05893
4272.01670	0.05903
4270.08803	0.05914
4268.15935	0.05924
4266.23068	0.05933
4264.30200	0.05943
4262.37332	0.05956
4260.44465	0.05968
4258.51597	0.05978
4256.58730	0.05988
4254.65862	0.05999
4252.72995	0.06011
4250.80127	0.06024
4248.87259	0.06034
4246.94392	0.06043
4245.01524	0.06052
4243.08657	0.06063
4241.15789	0.06075
4239.22922	0.06086
4237.30054	0.06099
4235.37186	0.06110
4233.44319	0.06120
4231.51451	0.06131
4229.58584	0.06144
4227.65716	0.06155
4225.72849	0.06164
4223.79981	0.06174
4221.87113	0.06185
4219.94246	0.06195
4218.01378	0.06206
4216.08511	0.06220
4214.15643	0.06233
4212.22776	0.06245
4210.29908	0.06257
4208.37040	0.06266
4206.44173	0.06277
4204.51305	0.06291
4202.58438	0.06307
4200.65570	0.06320
4198.72703	0.06332
4196.79835	0.06342
4194.86968	0.06351
4192.94100	0.06363
4191.01232	0.06378
4189.08365	0.06391
4187.15497	0.06401
4185.22630	0.06410
4183.29762	0.06421
4181.36895	0.06433
4179.44027	0.06446
4177.51159	0.06457
4175.58292	0.06468
4173.65424	0.06480
4171.72557	0.06493
4169.79689	0.06508
4167.86822	0.06522
4165.93954	0.06535
4164.01086	0.06547
4162.08219	0.06558
4160.15351	0.06571
4158.22484	0.06586
4156.29616	0.06600
4154.36749	0.06612
4152.43881	0.06622
4150.51013	0.06632
4148.58146	0.06644
4146.65278	0.06656
4144.72411	0.06668
4142.79543	0.06678
4140.86676	0.06689
4138.93808	0.06703
4137.00940	0.06718
4135.08073	0.06730
4133.15205	0.06741
4131.22338	0.06755
4129.29470	0.06769
4127.36603	0.06781
4125.43735	0.06793
4123.50867	0.06806
4121.58000	0.06820
4119.65132	0.06832
4117.72265	0.06842
4115.79397	0.06855
4113.86530	0.06870
4111.93662	0.06885
4110.00794	0.06897
4108.07927	0.06909
4106.15059	0.06923
4104.22192	0.06936
4102.29324	0.06948
4100.36457	0.06958
4098.43589	0.06971
4096.50721	0.06985
4094.57854	0.06999
4092.64986	0.07014
4090.72119	0.07027
4088.79251	0.07040
4086.86384	0.07054
4084.93516	0.07067
4083.00648	0.07080
4081.07781	0.07094
4079.14913	0.07107
4077.22046	0.07119
4075.29178	0.07133
4073.36311	0.07145
4071.43443	0.07157
4069.50575	0.07170
4067.57708	0.07186
4065.64840	0.07203
4063.71973	0.07219
4061.79105	0.07233
4059.86238	0.07246
4057.93370	0.07261
4056.00502	0.07277
4054.07635	0.07290
4052.14767	0.07301
4050.21900	0.07312
4048.29032	0.07324
4046.36165	0.07338
4044.43297	0.07352
4042.50429	0.07367
4040.57562	0.07381
4038.64694	0.07397
4036.71827	0.07410
4034.78959	0.07421
4032.86092	0.07434
4030.93224	0.07450
4029.00356	0.07465
4027.07489	0.07480
4025.14621	0.07496
4023.21754	0.07511
4021.28886	0.07526
4019.36019	0.07538
4017.43151	0.07550
4015.50283	0.07563
4013.57416	0.07578
4011.64548	0.07593
4009.71681	0.07606
4007.78813	0.07620
4005.85946	0.07637
4003.93078	0.07652
4002.00210	0.07666
4000.07343	0.07680
3998.14475	0.07694
3996.21608	0.07709
3994.28740	0.07724
3992.35873	0.07737
3990.43005	0.07751
3988.50137	0.07766
3986.57270	0.07783
3984.64402	0.07801
3982.71535	0.07816
3980.78667	0.07830
3978.85800	0.07842
3976.92932	0.07856
3975.00064	0.07871
3973.07197	0.07886
3971.14329	0.07901
3969.21462	0.07916
3967.28594	0.07929
3965.35727	0.07941
3963.42859	0.07955
3961.49991	0.07972
3959.57124	0.07987
3957.64256	0.08001
3955.71389	0.08015
3953.78521	0.08030
3951.85654	0.08044
3949.92786	0.08057
3947.99918	0.08073
3946.07051	0.08091
3944.14183	0.08105
3942.21316	0.08118
3940.28448	0.08135
3938.35581	0.08153
3936.42713	0.08167
3934.49845	0.08176
3932.56978	0.08188
3930.64110	0.08205
3928.71243	0.08224
3926.78375	0.08238
3924.85508	0.08251
3922.92640	0.08266
3920.99772	0.08280
3919.06905	0.08291
3917.14037	0.08308
3915.21170	0.08333
3913.28302	0.08356
3911.35435	0.08373
3909.42567	0.08385
3907.49699	0.08387
3905.56832	0.08380
3903.63964	0.08379
3901.71097	0.08395
3899.78229	0.08423
3897.85362	0.08457
3895.92494	0.08485
3893.99626	0.08498
3892.06759	0.08505
3890.13891	0.08520
3888.21024	0.08534
3886.28156	0.08541
3884.35289	0.08556
3882.42421	0.08575
3880.49553	0.08595
3878.56686	0.08623
3876.63818	0.08643
3874.70951	0.08649
3872.78083	0.08653
3870.85216	0.08662
3868.92348	0.08680
3866.99480	0.08702
3865.06613	0.08718
3863.13745	0.08738
3861.20878	0.08766
3859.28010	0.08786
3857.35143	0.08775
3855.42275	0.08740
3853.49407	0.08736
3851.56540	0.08792
3849.63672	0.08859
3847.70805	0.08896
3845.77937	0.08907
3843.85070	0.08911
3841.92202	0.08915
3839.99334	0.08919
3838.06467	0.08932
3836.13599	0.08959
3834.20732	0.08988
3832.27864	0.09011
3830.34997	0.09032
3828.42129	0.09051
3826.49261	0.09069
3824.56394	0.09079
3822.63526	0.09077
3820.70659	0.09085
3818.77791	0.09110
3816.84924	0.09131
3814.92056	0.09159
3812.99188	0.09196
3811.06321	0.09219
3809.13453	0.09222
3807.20586	0.09229
3805.27718	0.09245
3803.34851	0.09253
3801.41983	0.09261
3799.49115	0.09287
3797.56248	0.09316
3795.63380	0.09343
3793.70513	0.09373
3791.77645	0.09397
3789.84778	0.09413
3787.91910	0.09425
3785.99042	0.09438
3784.06175	0.09456
3782.13307	0.09472
3780.20440	0.09484
3778.27572	0.09504
3776.34705	0.09532
3774.41837	0.09552
3772.48969	0.09561
3770.56102	0.09567
3768.63234	0.09580
3766.70367	0.09600
3764.77499	0.09622
3762.84632	0.09643
3760.91764	0.09653
3758.98896	0.09664
3757.06029	0.09684
3755.13161	0.09694
3753.20294	0.09681
3751.27426	0.09671
3749.34559	0.09688
3747.41691	0.09707
3745.48823	0.09707
3743.55956	0.09734
3741.63088	0.09794
3739.70221	0.09825
3737.77353	0.09816
3735.84486	0.09813
3733.91618	0.09838
3731.98750	0.09883
3730.05883	0.09927
3728.13015	0.09950
3726.20148	0.09961
3724.27280	0.09977
3722.34413	0.10001
3720.41545	0.10027
3718.48677	0.10053
3716.55810	0.10070
3714.62942	0.10070
3712.70075	0.10063
3710.77207	0.10078
3708.84340	0.10117
3706.91472	0.10155
3704.98604	0.10178
3703.05737	0.10187
3701.12869	0.10202
3699.20002	0.10230
3697.27134	0.10255
3695.34267	0.10268
3693.41399	0.10270
3691.48531	0.10265
3689.55664	0.10270
3687.62796	0.10300
3685.69929	0.10343
3683.77061	0.10375
3681.84194	0.10390
3679.91326	0.10393
3677.98458	0.10383
3676.05591	0.10374
3674.12723	0.10392
3672.19856	0.10417
3670.26988	0.10437
3668.34121	0.10472
3666.41253	0.10517
3664.48385	0.10549
3662.55518	0.10570
3660.62650	0.10583
3658.69783	0.10584
3656.76915	0.10585
3654.84048	0.10597
3652.91180	0.10594
3650.98312	0.10566
3649.05445	0.10553
3647.12577	0.10584
3645.19710	0.10643
3643.26842	0.10697
3641.33975	0.10729
3639.41107	0.10747
3637.48239	0.10761
3635.55372	0.10773
3633.62504	0.10779
3631.69637	0.10768
3629.76769	0.10755
3627.83902	0.10779
3625.91034	0.10829
3623.98166	0.10861
3622.05299	0.10864
3620.12431	0.10860
3618.19564	0.10871
3616.26696	0.10891
3614.33829	0.10903
3612.40961	0.10907
3610.48093	0.10912
3608.55226	0.10926
3606.62358	0.10958
3604.69491	0.10990
3602.76623	0.11008
3600.83756	0.11020
3598.90888	0.11034
3596.98020	0.11047
3595.05153	0.11061
3593.12285	0.11078
3591.19418	0.11086
3589.26550	0.11080
3587.33683	0.11087
3585.40815	0.11117
3583.47947	0.11149
3581.55080	0.11171
3579.62212	0.11186
3577.69345	0.11199
3575.76477	0.11215
3573.83610	0.11235
3571.90742	0.11248
3569.97874	0.11243
3568.05007	0.11236
3566.12139	0.11252
3564.19272	0.11286
3562.26404	0.11314
3560.33537	0.11333
3558.40669	0.11351
3556.47801	0.11366
3554.54934	0.11375
3552.62066	0.11384
3550.69199	0.11397
3548.76331	0.11409
3546.83464	0.11417
3544.90596	0.11431
3542.97728	0.11452
3541.04861	0.11471
3539.11993	0.11484
3537.19126	0.11495
3535.26258	0.11508
3533.33391	0.11518
3531.40523	0.11522
3529.47655	0.11525
3527.54788	0.11531
3525.61920	0.11540
3523.69053	0.11551
3521.76185	0.11561
3519.83318	0.11572
3517.90450	0.11581
3515.97582	0.11588
3514.04715	0.11593
3512.11847	0.11599
3510.18980	0.11604
3508.26112	0.11611
3506.33245	0.11617
3504.40377	0.11624
3502.47509	0.11633
3500.54642	0.11642
3498.61774	0.11647
3496.68907	0.11653
3494.76039	0.11660
3492.83172	0.11669
3490.90304	0.11677
3488.97436	0.11682
3487.04569	0.11687
3485.11701	0.11692
3483.18834	0.11696
3481.25966	0.11705
3479.33099	0.11718
3477.40231	0.11731
3475.47363	0.11744
3473.54496	0.11760
3471.61628	0.11778
3469.68761	0.11795
3467.75893	0.11812
3465.83026	0.11831
3463.90158	0.11849
3461.97290	0.11867
3460.04423	0.11889
3458.11555	0.11912
3456.18688	0.11933
3454.25820	0.11953
3452.32953	0.11971
3450.40085	0.11985
3448.47217	0.11998
3446.54350	0.12012
3444.61482	0.12032
3442.68615	0.12055
3440.75747	0.12079
3438.82880	0.12105
3436.90012	0.12133
3434.97144	0.12164
3433.04277	0.12199
3431.11409	0.12238
3429.18542	0.12279
3427.25674	0.12320
3425.32807	0.12360
3423.39939	0.12397
3421.47071	0.12431
3419.54204	0.12465
3417.61336	0.12498
3415.68469	0.12527
3413.75601	0.12555
3411.82734	0.12583
3409.89866	0.12610
3407.96998	0.12637
3406.04131	0.12663
3404.11263	0.12689
3402.18396	0.12715
3400.25528	0.12741
3398.32661	0.12766
3396.39793	0.12791
3394.46925	0.12818
3392.54058	0.12846
3390.61190	0.12874
3388.68323	0.12900
3386.75455	0.12924
3384.82588	0.12948
3382.89720	0.12973
3380.96852	0.12999
3379.03985	0.13023
3377.11117	0.13047
3375.18250	0.13071
3373.25382	0.13096
3371.32515	0.13120
3369.39647	0.13144
3367.46779	0.13168
3365.53912	0.13190
3363.61044	0.13211
3361.68177	0.13233
3359.75309	0.13259
3357.82442	0.13285
3355.89574	0.13311
3353.96706	0.13335
3352.03839	0.13358
3350.10971	0.13381
3348.18104	0.13404
3346.25236	0.13428
3344.32369	0.13453
3342.39501	0.13477
3340.46633	0.13498
3338.53766	0.13520
3336.60898	0.13544
3334.68031	0.13568
3332.75163	0.13591
3330.82296	0.13613
3328.89428	0.13635
3326.96560	0.13660
3325.03693	0.13688
3323.10825	0.13716
3321.17958	0.13740
3319.25090	0.13761
3317.32223	0.13783
3315.39355	0.13808
3313.46487	0.13834
3311.53620	0.13860
3309.60752	0.13886
3307.67885	0.13912
3305.75017	0.13939
3303.82150	0.13964
3301.89282	0.13985
3299.96414	0.14005
3298.03547	0.14029
3296.10679	0.14055
3294.17812	0.14080
3292.24944	0.14106
3290.32077	0.14132
3288.39209	0.14158
3286.46341	0.14185
3284.53474	0.14212
3282.60606	0.14234
3280.67739	0.14256
3278.74871	0.14283
3276.82004	0.14313
3274.89136	0.14342
3272.96268	0.14369
3271.03401	0.14397
3269.10533	0.14424
3267.17666	0.14448
3265.24798	0.14471
3263.31931	0.14497
3261.39063	0.14522
3259.46195	0.14547
3257.53328	0.14572
3255.60460	0.14597
3253.67593	0.14626
3251.74725	0.14655
3249.81858	0.14681
3247.88990	0.14707
3245.96122	0.14734
3244.03255	0.14761
3242.10387	0.14786
3240.17520	0.14810
3238.24652	0.14834
3236.31785	0.14858
3234.38917	0.14884
3232.46049	0.14911
3230.53182	0.14940
3228.60314	0.14968
3226.67447	0.14991
3224.74579	0.15015
3222.81712	0.15041
3220.88844	0.15071
3218.95976	0.15100
3217.03109	0.15125
3215.10241	0.15144
3213.17374	0.15163
3211.24506	0.15185
3209.31639	0.15212
3207.38771	0.15243
3205.45903	0.15272
3203.53036	0.15300
3201.60168	0.15328
3199.67301	0.15356
3197.74433	0.15384
3195.81566	0.15413
3193.88698	0.15445
3191.95830	0.15476
3190.02963	0.15504
3188.10095	0.15530
3186.17228	0.15557
3184.24360	0.15581
3182.31493	0.15605
3180.38625	0.15629
3178.45757	0.15655
3176.52890	0.15684
3174.60022	0.15716
3172.67155	0.15747
3170.74287	0.15774
3168.81420	0.15800
3166.88552	0.15827
3164.95684	0.15853
3163.02817	0.15878
3161.09949	0.15901
3159.17082	0.15928
3157.24214	0.15957
3155.31347	0.15983
3153.38479	0.16007
3151.45611	0.16032
3149.52744	0.16058
3147.59876	0.16088
3145.67009	0.16119
3143.74141	0.16148
3141.81274	0.16174
3139.88406	0.16199
3137.95538	0.16224
3136.02671	0.16251
3134.09803	0.16278
3132.16936	0.16304
3130.24068	0.16332
3128.31201	0.16360
3126.38333	0.16387
3124.45465	0.16414
3122.52598	0.16443
3120.59730	0.16472
3118.66863	0.16499
3116.73995	0.16525
3114.81128	0.16549
3112.88260	0.16577
3110.95392	0.16607
3109.02525	0.16634
3107.09657	0.16657
3105.16790	0.16679
3103.23922	0.16705
3101.31055	0.16737
3099.38187	0.16765
3097.45319	0.16791
3095.52452	0.16819
3093.59584	0.16848
3091.66717	0.16874
3089.73849	0.16898
3087.80982	0.16923
3085.88114	0.16949
3083.95246	0.16977
3082.02379	0.17005
3080.09511	0.17031
3078.16644	0.17057
3076.23776	0.17085
3074.30909	0.17113
3072.38041	0.17139
3070.45173	0.17165
3068.52306	0.17192
3066.59438	0.17219
3064.66571	0.17246
3062.73703	0.17273
3060.80836	0.17299
3058.87968	0.17327
3056.95100	0.17353
3055.02233	0.17379
3053.09365	0.17408
3051.16498	0.17436
3049.23630	0.17461
3047.30763	0.17485
3045.37895	0.17511
3043.45027	0.17539
3041.52160	0.17568
3039.59292	0.17594
3037.66425	0.17620
3035.73557	0.17644
3033.80690	0.17666
3031.87822	0.17693
3029.94954	0.17722
3028.02087	0.17750
3026.09219	0.17775
3024.16352	0.17804
3022.23484	0.17835
3020.30617	0.17863
3018.37749	0.17886
3016.44881	0.17910
3014.52014	0.17937
3012.59146	0.17965
3010.66279	0.17991
3008.73411	0.18018
3006.80544	0.18044
3004.87676	0.18071
3002.94808	0.18097
3001.01941	0.18124
2999.09073	0.18151
2997.16206	0.18175
2995.23338	0.18198
2993.30471	0.18224
2991.37603	0.18249
2989.44735	0.18271
2987.51868	0.18291
2985.59000	0.18310
2983.66133	0.18328
2981.73265	0.18345
2979.80398	0.18360
2977.87530	0.18371
2975.94662	0.18378
2974.01795	0.18382
2972.08927	0.18385
2970.16060	0.18385
2968.23192	0.18382
2966.30325	0.18382
2964.37457	0.18391
2962.44589	0.18412
2960.51722	0.18439
2958.58854	0.18469
2956.65987	0.18503
2954.73119	0.18541
2952.80252	0.18577
2950.87384	0.18609
2948.94516	0.18638
2947.01649	0.18662
2945.08781	0.18681
2943.15914	0.18693
2941.23046	0.18701
2939.30179	0.18706
2937.37311	0.18710
2935.44443	0.18709
2933.51576	0.18700
2931.58708	0.18689
2929.65841	0.18683
2927.72973	0.18683
2925.80106	0.18685
2923.87238	0.18688
2921.94370	0.18691
2920.01503	0.18700
2918.08635	0.18725
2916.15768	0.18779
2914.22900	0.18863
2912.30033	0.18956
2910.37165	0.19040
2908.44297	0.19108
2906.51430	0.19165
2904.58562	0.19214
2902.65695	0.19258
2900.72827	0.19299
2898.79960	0.19337
2896.87092	0.19374
2894.94224	0.19415
2893.01357	0.19457
2891.08489	0.19497
2889.15622	0.19532
2887.22754	0.19564
2885.29887	0.19594
2883.37019	0.19623
2881.44151	0.19652
2879.51284	0.19679
2877.58416	0.19704
2875.65549	0.19730
2873.72681	0.19754
2871.79814	0.19777
2869.86946	0.19800
2867.94078	0.19824
2866.01211	0.19847
2864.08343	0.19869
2862.15476	0.19886
2860.22608	0.19894
2858.29741	0.19896
2856.36873	0.19896
2854.44005	0.19891
2852.51138	0.19888
2850.58270	0.19902
2848.65403	0.19953
2846.72535	0.20038
2844.79668	0.20133
2842.86800	0.20214
2840.93932	0.20279
2839.01065	0.20328
2837.08197	0.20367
2835.15330	0.20404
2833.22462	0.20442
2831.29595	0.20480
2829.36727	0.20515
2827.43859	0.20548
2825.50992	0.20581
2823.58124	0.20608
2821.65257	0.20634
2819.72389	0.20665
2817.79522	0.20701
2815.86654	0.20736
2813.93786	0.20768
2812.00919	0.20796
2810.08051	0.20819
2808.15184	0.20846
2806.22316	0.20879
2804.29449	0.20915
2802.36581	0.20948
2800.43713	0.20980
2798.50846	0.21007
2796.57978	0.21032
2794.65111	0.21060
2792.72243	0.21091
2790.79376	0.21121
2788.86508	0.21149
2786.93640	0.21177
2785.00773	0.21207
2783.07905	0.21237
2781.15038	0.21264
2779.22170	0.21293
2777.29303	0.21324
2775.36435	0.21356
2773.43567	0.21387
2771.50700	0.21416
2769.57832	0.21445
2767.64965	0.21473
2765.72097	0.21501
2763.79230	0.21528
2761.86362	0.21554
2759.93494	0.21583
2758.00627	0.21614
2756.07759	0.21644
2754.14892	0.21672
2752.22024	0.21700
2750.29157	0.21729
2748.36289	0.21757
2746.43421	0.21783
2744.50554	0.21808
2742.57686	0.21835
2740.64819	0.21862
2738.71951	0.21892
2736.79084	0.21922
2734.86216	0.21949
2732.93348	0.21976
2731.00481	0.22005
2729.07613	0.22036
2727.14746	0.22066
2725.21878	0.22094
2723.29011	0.22120
2721.36143	0.22147
2719.43275	0.22174
2717.50408	0.22202
2715.57540	0.22232
2713.64673	0.22261
2711.71805	0.22286
2709.78938	0.22313
2707.86070	0.22342
2705.93202	0.22374
2704.00335	0.22407
2702.07467	0.22439
2700.14600	0.22465
2698.21732	0.22488
2696.28865	0.22510
2694.35997	0.22535
2692.43129	0.22562
2690.50262	0.22590
2688.57394	0.22621
2686.64527	0.22650
2684.71659	0.22676
2682.78792	0.22702
2680.85924	0.22729
2678.93056	0.22757
2677.00189	0.22786
2675.07321	0.22815
2673.14454	0.22844
2671.21586	0.22875
2669.28719	0.22903
2667.35851	0.22928
2665.42983	0.22951
2663.50116	0.22979
2661.57248	0.23008
2659.64381	0.23040
2657.71513	0.23070
2655.78646	0.23098
2653.85778	0.23126
2651.92910	0.23155
2650.00043	0.23183
2648.07175	0.23211
2646.14308	0.23239
2644.21440	0.23269
2642.28573	0.23300
2640.35705	0.23330
2638.42837	0.23361
2636.49970	0.23393
2634.57102	0.23421
2632.64235	0.23449
2630.71367	0.23479
2628.78500	0.23508
2626.85632	0.23535
2624.92764	0.23565
2622.99897	0.23597
2621.07029	0.23630
2619.14162	0.23659
2617.21294	0.23686
2615.28427	0.23714
2613.35559	0.23744
2611.42691	0.23777
2609.49824	0.23811
2607.56956	0.23842
2605.64089	0.23873
2603.71221	0.23905
2601.78354	0.23933
2599.85486	0.23962
2597.92618	0.23992
2595.99751	0.24021
2594.06883	0.24048
2592.14016	0.24077
2590.21148	0.24108
2588.28281	0.24141
2586.35413	0.24171
2584.42545	0.24198
2582.49678	0.24228
2580.56810	0.24260
2578.63943	0.24291
2576.71075	0.24320
2574.78208	0.24351
2572.85340	0.24381
2570.92472	0.24407
2568.99605	0.24434
2567.06737	0.24461
2565.13870	0.24491
2563.21002	0.24520
2561.28135	0.24548
2559.35267	0.24575
2557.42399	0.24605
2555.49532	0.24637
2553.56664	0.24666
2551.63797	0.24689
2549.70929	0.24714
2547.78062	0.24746
2545.85194	0.24780
2543.92326	0.24810
2541.99459	0.24838
2540.06591	0.24865
2538.13724	0.24893
2536.20856	0.24924
2534.27989	0.24953
2532.35121	0.24981
2530.42253	0.25008
2528.49386	0.25035
2526.56518	0.25062
2524.63651	0.25090
2522.70783	0.25120
2520.77916	0.25153
2518.85048	0.25186
2516.92181	0.25219
2514.99313	0.25251
2513.06445	0.25281
2511.13578	0.25307
2509.20710	0.25335
2507.27843	0.25370
2505.34975	0.25405
2503.42108	0.25439
2501.49240	0.25473
2499.56372	0.25505
2497.63505	0.25534
2495.70637	0.25566
2493.77770	0.25601
2491.84902	0.25633
2489.92035	0.25663
2487.99167	0.25695
2486.06299	0.25731
2484.13432	0.25764
2482.20564	0.25795
2480.27697	0.25828
2478.34829	0.25862
2476.41962	0.25893
2474.49094	0.25922
2472.56226	0.25952
2470.63359	0.25984
2468.70491	0.26016
2466.77624	0.26047
2464.84756	0.26079
2462.91889	0.26110
2460.99021	0.26140
2459.06153	0.26169
2457.13286	0.26198
2455.20418	0.26229
2453.27551	0.26261
2451.34683	0.26290
2449.41816	0.26321
2447.48948	0.26355
2445.56080	0.26389
2443.63213	0.26420
2441.70345	0.26451
2439.77478	0.26482
2437.84610	0.26513
2435.91743	0.26545
2433.98875	0.26573
2432.06007	0.26602
2430.13140	0.26632
2428.20272	0.26662
2426.27405	0.26690
2424.34537	0.26719
2422.41670	0.26751
2420.48802	0.26785
2418.55934	0.26819
2416.63067	0.26851
2414.70199	0.26883
2412.77332	0.26911
2410.84464	0.26939
2408.91597	0.26970
2406.98729	0.27002
2405.05861	0.27031
2403.12994	0.27060
2401.20126	0.27092
2399.27259	0.27127
2397.34391	0.27159
2395.41524	0.27189
2393.48656	0.27219
2391.55788	0.27249
2389.62921	0.27276
2387.70053	0.27304
2385.77186	0.27333
2383.84318	0.27357
2381.91451	0.27376
2379.98583	0.27393
2378.05715	0.27409
2376.12848	0.27420
2374.19980	0.27424
2372.27113	0.27428
2370.34245	0.27436
2368.41378	0.27448
2366.48510	0.27462
2364.55642	0.27478
2362.62775	0.27500
2360.69907	0.27530
2358.77040	0.27570
2356.84172	0.27618
2354.91305	0.27672
2352.98437	0.27732
2351.05569	0.27798
2349.12702	0.27848
2347.19834	0.27865
2345.26967	0.27863
2343.34099	0.27869
2341.41232	0.27888
2339.48364	0.27916
2337.55496	0.27946
2335.62629	0.27976
2333.69761	0.28006
2331.76894	0.28036
2329.84026	0.28072
2327.91159	0.28114
2325.98291	0.28155
2324.05423	0.28197
2322.12556	0.28242
2320.19688	0.28286
2318.26821	0.28325
2316.33953	0.28363
2314.41086	0.28402
2312.48218	0.28444
2310.55350	0.28486
2308.62483	0.28523
2306.69615	0.28555
2304.76748	0.28588
2302.83880	0.28627
2300.91013	0.28665
2298.98145	0.28698
2297.05277	0.28732
2295.12410	0.28767
2293.19542	0.28802
2291.26675	0.28835
2289.33807	0.28865
2287.40940	0.28892
2285.48072	0.28923
2283.55204	0.28957
2281.62337	0.28991
2279.69469	0.29023
2277.76602	0.29053
2275.83734	0.29082
2273.90867	0.29111
2271.97999	0.29144
2270.05131	0.29178
2268.12264	0.29211
2266.19396	0.29239
2264.26529	0.29264
2262.33661	0.29293
2260.40794	0.29328
2258.47926	0.29363
2256.55058	0.29395
2254.62191	0.29425
2252.69323	0.29454
2250.76456	0.29481
2248.83588	0.29506
2246.90721	0.29533
2244.97853	0.29565
2243.04985	0.29600
2241.12118	0.29634
2239.19250	0.29665
2237.26383	0.29691
2235.33515	0.29716
2233.40648	0.29747
2231.47780	0.29783
2229.54912	0.29819
2227.62045	0.29849
2225.69177	0.29876
2223.76310	0.29903
2221.83442	0.29933
2219.90575	0.29969
2217.97707	0.30007
2216.04839	0.30039
2214.11972	0.30065
2212.19104	0.30093
2210.26237	0.30124
2208.33369	0.30153
2206.40502	0.30179
2204.47634	0.30205
2202.54766	0.30234
2200.61899	0.30265
2198.69031	0.30294
2196.76164	0.30320
2194.83296	0.30348
2192.90429	0.30382
2190.97561	0.30416
2189.04693	0.30447
2187.11826	0.30477
2185.18958	0.30505
2183.26091	0.30535
2181.33223	0.30567
2179.40356	0.30601
2177.47488	0.30634
2175.54620	0.30665
2173.61753	0.30691
2171.68885	0.30719
2169.76018	0.30752
2167.83150	0.30785
2165.90283	0.30818
2163.97415	0.30852
2162.04547	0.30886
2160.11680	0.30917
2158.18812	0.30948
2156.25945	0.30982
2154.33077	0.31017
2152.40210	0.31046
2150.47342	0.31075
2148.54474	0.31107
2146.61607	0.31139
2144.68739	0.31166
2142.75872	0.31196
2140.83004	0.31228
2138.90137	0.31259
2136.97269	0.31287
2135.04401	0.31317
2133.11534	0.31347
2131.18666	0.31378
2129.25799	0.31409
2127.32931	0.31441
2125.40064	0.31473
2123.47196	0.31504
2121.54328	0.31537
2119.61461	0.31572
2117.68593	0.31602
2115.75726	0.31628
2113.82858	0.31658
2111.89991	0.31691
2109.97123	0.31722
2108.04255	0.31755
2106.11388	0.31792
2104.18520	0.31826
2102.25653	0.31855
2100.32785	0.31883
2098.39918	0.31915
2096.47050	0.31949
2094.54182	0.31980
2092.61315	0.32005
2090.68447	0.32030
2088.75580	0.32058
2086.82712	0.32092
2084.89845	0.32130
2082.96977	0.32164
2081.04109	0.32195
2079.11242	0.32226
2077.18374	0.32260
2075.25507	0.32293
2073.32639	0.32324
2071.39772	0.32352
2069.46904	0.32381
2067.54036	0.32412
2065.61169	0.32441
2063.68301	0.32469
2061.75434	0.32498
2059.82566	0.32531
2057.89699	0.32565
2055.96831	0.32598
2054.03963	0.32629
2052.11096	0.32663
2050.18228	0.32696
2048.25361	0.32726
2046.32493	0.32753
2044.39626	0.32781
2042.46758	0.32814
2040.53890	0.32851
2038.61023	0.32887
2036.68155	0.32921
2034.75288	0.32952
2032.82420	0.32981
2030.89553	0.33008
2028.96685	0.33038
2027.03817	0.33070
2025.10950	0.33102
2023.18082	0.33139
2021.25215	0.33178
2019.32347	0.33209
2017.39480	0.33235
2015.46612	0.33263
2013.53744	0.33289
2011.60877	0.33315
2009.68009	0.33347
2007.75142	0.33386
2005.82274	0.33426
2003.89407	0.33460
2001.96539	0.33488
2000.03671	0.33514
1998.10804	0.33543
1996.17936	0.33573
1994.25069	0.33595
1992.32201	0.33617
1990.39334	0.33649
1988.46466	0.33682
1986.53598	0.33709
1984.60731	0.33738
1982.67863	0.33770
1980.74996	0.33800
1978.82128	0.33826
1976.89261	0.33850
1974.96393	0.33873
1973.03525	0.33898
1971.10658	0.33921
1969.17790	0.33943
1967.24923	0.33970
1965.32055	0.34004
1963.39188	0.34037
1961.46320	0.34068
1959.53452	0.34099
1957.60585	0.34132
1955.67717	0.34166
1953.74850	0.34193
1951.81982	0.34219
1949.89115	0.34251
1947.96247	0.34283
1946.03379	0.34306
1944.10512	0.34321
1942.17644	0.34347
1940.24777	0.34391
1938.31909	0.34434
1936.39042	0.34468
1934.46174	0.34498
1932.53306	0.34527
1930.60439	0.34557
1928.67571	0.34590
1926.74704	0.34620
1924.81836	0.34642
1922.88969	0.34662
1920.96101	0.34680
1919.03233	0.34693
1917.10366	0.34729
1915.17498	0.34786
1913.24631	0.34828
1911.31763	0.34851
1909.38896	0.34876
1907.46028	0.34911
1905.53160	0.34950
1903.60293	0.34983
1901.67425	0.35011
1899.74558	0.35039
1897.81690	0.35064
1895.88823	0.35088
1893.95955	0.35117
1892.03087	0.35140
1890.10220	0.35155
1888.17352	0.35187
1886.24485	0.35234
1884.31617	0.35276
1882.38750	0.35308
1880.45882	0.35334
1878.53014	0.35361
1876.60147	0.35392
1874.67279	0.35425
1872.74412	0.35443
1870.81544	0.35437
1868.88677	0.35442
1866.95809	0.35494
1865.02941	0.35563
1863.10074	0.35608
1861.17206	0.35637
1859.24339	0.35671
1857.31471	0.35710
1855.38604	0.35746
1853.45736	0.35779
1851.52868	0.35807
1849.60001	0.35825
1847.67133	0.35821
1845.74266	0.35801
1843.81398	0.35820
1841.88531	0.35899
1839.95663	0.35972
1838.02795	0.36011
1836.09928	0.36046
1834.17060	0.36074
1832.24193	0.36076
1830.31325	0.36076
1828.38458	0.36103
1826.45590	0.36139
1824.52722	0.36179
1822.59855	0.36237
1820.66987	0.36286
1818.74120	0.36315
1816.81252	0.36340
1814.88385	0.36364
1812.95517	0.36375
1811.02649	0.36390
1809.09782	0.36427
1807.16914	0.36467
1805.24047	0.36488
1803.31179	0.36487
1801.38312	0.36489
1799.45444	0.36520
1797.52576	0.36563
1795.59709	0.36578
1793.66841	0.36562
1791.73974	0.36576
1789.81106	0.36643
1787.88239	0.36700
1785.95371	0.36715
1784.02503	0.36727
1782.09636	0.36750
1780.16768	0.36780
1778.23901	0.36815
1776.31033	0.36824
1774.38166	0.36793
1772.45298	0.36772
1770.52430	0.36799
1768.59563	0.36852
1766.66695	0.36914
1764.73828	0.36956
1762.80960	0.36959
1760.88093	0.36968
1758.95225	0.36988
1757.02357	0.37003
1755.09490	0.37015
1753.16622	0.36988
1751.23755	0.36936
1749.30887	0.36933
1747.38020	0.36977
1745.45152	0.37013
1743.52284	0.37020
1741.59417	0.37013
1739.66549	0.37021
1737.73682	0.37024
1735.80814	0.36972
1733.87947	0.36947
1731.95079	0.37027
1730.02211	0.37138
1728.09344	0.37220
1726.16476	0.37276
1724.23609	0.37305
1722.30741	0.37308
1720.37874	0.37267
1718.45006	0.37208
1716.52138	0.37219
1714.59271	0.37306
1712.66403	0.37397
1710.73536	0.37446
1708.80668	0.37447
1706.87801	0.37421
1704.94933	0.37405
1703.02065	0.37361
1701.09198	0.37289
1699.16330	0.37286
1697.23463	0.37336
1695.30595	0.37394
1693.37728	0.37474
1691.44860	0.37520
1689.51992	0.37514
1687.59125	0.37473
1685.66257	0.37395
1683.73390	0.37368
1681.80522	0.37444
1679.87655	0.37528
1677.94787	0.37536
1676.01919	0.37499
1674.09052	0.37493
1672.16184	0.37499
1670.23317	0.37493
1668.30449	0.37533
1666.37582	0.37603
1664.44714	0.37621
1662.51846	0.37620
1660.58979	0.37652
1658.66111	0.37675
1656.73244	0.37612
1654.80376	0.37471
1652.87509	0.37419
1650.94641	0.37517
1649.01773	0.37587
1647.08906	0.37584
1645.16038	0.37635
1643.23171	0.37723
1641.30303	0.37763
1639.37436	0.37735
1637.44568	0.37670
1635.51700	0.37658
1633.58833	0.37740
1631.65965	0.37820
1629.73098	0.37825
1627.80230	0.37793
1625.87363	0.37750
1623.94495	0.37687
1622.01627	0.37640
1620.08760	0.37633
1618.15892	0.37659
1616.23025	0.37755
1614.30157	0.37909
1612.37290	0.38031
1610.44422	0.38092
1608.51554	0.38138
1606.58687	0.38186
1604.65819	0.38229
1602.72952	0.38270
1600.80084	0.38315
1598.87217	0.38353
1596.94349	0.38379
1595.01481	0.38402
1593.08614	0.38433
1591.15746	0.38470
1589.22879	0.38510
1587.30011	0.38550
1585.37144	0.38582
1583.44276	0.38607
1581.51408	0.38627
1579.58541	0.38622
1577.65673	0.38593
1575.72806	0.38604
1573.79938	0.38669
1571.87071	0.38695
1569.94203	0.38687
1568.01335	0.38719
1566.08468	0.38776
1564.15600	0.38800
1562.22733	0.38747
1560.29865	0.38631
1558.36998	0.38602
1556.44130	0.38716
1554.51262	0.38851
1552.58395	0.38931
1550.65527	0.38974
1548.72660	0.39003
1546.79792	0.38998
1544.86925	0.38941
1542.94057	0.38866
1541.01189	0.38833
1539.08322	0.38896
1537.15454	0.39010
1535.22587	0.39060
1533.29719	0.39070
1531.36852	0.39113
1529.43984	0.39147
1527.51116	0.39141
1525.58249	0.39124
1523.65381	0.39080
1521.72514	0.39035
1519.79646	0.39057
1517.86779	0.39119
1515.93911	0.39179
1514.01043	0.39233
1512.08176	0.39247
1510.15308	0.39198
1508.22441	0.39131
1506.29573	0.39153
1504.36706	0.39283
1502.43838	0.39386
1500.50970	0.39388
1498.58103	0.39354
1496.65235	0.39366
1494.72368	0.39428
1492.79500	0.39454
1490.86633	0.39413
1488.93765	0.39392
1487.00897	0.39440
1485.08030	0.39502
1483.15162	0.39527
1481.22295	0.39525
1479.29427	0.39507
1477.36560	0.39456
1475.43692	0.39380
1473.50824	0.39322
1471.57957	0.39326
1469.65089	0.39373
1467.72222	0.39383
1465.79354	0.39355
1463.86487	0.39362
1461.93619	0.39381
1460.00751	0.39315
1458.07884	0.39205
1456.15016	0.39211
1454.22149	0.39336
1452.29281	0.39435
1450.36414	0.39460
1448.43546	0.39466
1446.50678	0.39495
1444.57811	0.39538
1442.64943	0.39565
1440.72076	0.39555
1438.79208	0.39491
1436.86341	0.39442
1434.93473	0.39483
1433.00605	0.39545
1431.07738	0.39554
1429.14870	0.39550
1427.22003	0.39554
1425.29135	0.39543
1423.36268	0.39513
1421.43400	0.39451
1419.50532	0.39391
1417.57665	0.39411
1415.64797	0.39480
1413.71930	0.39516
1411.79062	0.39515
1409.86195	0.39507
1407.93327	0.39493
1406.00459	0.39472
1404.07592	0.39462
1402.14724	0.39455
1400.21857	0.39427
1398.28989	0.39394
1396.36122	0.39374
1394.43254	0.39379
1392.50386	0.39405
1390.57519	0.39394
1388.64651	0.39325
1386.71784	0.39264
1384.78916	0.39251
1382.86049	0.39268
1380.93181	0.39288
1379.00313	0.39296
1377.07446	0.39281
1375.14578	0.39256
1373.21711	0.39249
1371.28843	0.39260
1369.35976	0.39267
1367.43108	0.39264
1365.50240	0.39239
1363.57373	0.39199
1361.64505	0.39194
1359.71638	0.39228
1357.78770	0.39254
1355.85903	0.39260
1353.93035	0.39261
1352.00167	0.39265
1350.07300	0.39274
1348.14432	0.39292
1346.21565	0.39311
1344.28697	0.39321
1342.35830	0.39308
1340.42962	0.39279
1338.50094	0.39268
1336.57227	0.39282
1334.64359	0.39301
1332.71492	0.39308
1330.78624	0.39302
1328.85757	0.39289
1326.92889	0.39273
1325.00021	0.39259
1323.07154	0.39245
1321.14286	0.39224
1319.21419	0.39201
1317.28551	0.39186
1315.35684	0.39173
1313.42816	0.39157
1311.49948	0.39136
1309.57081	0.39111
1307.64213	0.39080
1305.71346	0.39045
1303.78478	0.39010
1301.85611	0.38972
1299.92743	0.38933
1297.99875	0.38892
1296.07008	0.38852
1294.14140	0.38812
1292.21273	0.38769
1290.28405	0.38724
1288.35538	0.38675
1286.42670	0.38622
1284.49802	0.38570
1282.56935	0.38519
1280.64067	0.38462
1278.71200	0.38394
1276.78332	0.38316
1274.85465	0.38222
1272.92597	0.38108
1270.99729	0.37971
1269.06862	0.37799
1267.13994	0.37603
1265.21127	0.37421
1263.28259	0.37294
1261.35392	0.37234
1259.42524	0.37229
1257.49656	0.37254
1255.56789	0.37276
1253.63921	0.37272
1251.71054	0.37236
1249.78186	0.37179
1247.85319	0.37108
1245.92451	0.37027
1243.99583	0.36948
1242.06716	0.36871
1240.13848	0.36786
1238.20981	0.36687
1236.28113	0.36585
1234.35246	0.36483
1232.42378	0.36376
1230.49510	0.36264
1228.56643	0.36153
1226.63775	0.36048
1224.70908	0.35948
1222.78040	0.35855
1220.85173	0.35763
1218.92305	0.35672
1216.99437	0.35579
1215.06570	0.35483
1213.13702	0.35387
1211.20835	0.35291
1209.27967	0.35194
1207.35100	0.35095
1205.42232	0.34999
1203.49364	0.34906
1201.56497	0.34813
1199.63629	0.34722
1197.70762	0.34635
1195.77894	0.34547
1193.85027	0.34452
1191.92159	0.34350
1189.99291	0.34238
1188.06424	0.34121
1186.13556	0.34001
1184.20689	0.33874
1182.27821	0.33738
1180.34954	0.33599
1178.42086	0.33461
1176.49218	0.33325
1174.56351	0.33189
1172.63483	0.33049
1170.70616	0.32902
1168.77748	0.32752
1166.84881	0.32603
1164.92013	0.32457
1162.99145	0.32315
1161.06278	0.32180
1159.13410	0.32049
1157.20543	0.31918
1155.27675	0.31786
1153.34808	0.31657
1151.41940	0.31529
1149.49072	0.31402
1147.56205	0.31280
1145.63337	0.31166
1143.70470	0.31053
1141.77602	0.30935
1139.84735	0.30816
1137.91867	0.30699
1135.98999	0.30575
1134.06132	0.30444
1132.13264	0.30311
1130.20397	0.30177
1128.27529	0.30038
1126.34662	0.29894
1124.41794	0.29743
1122.48926	0.29587
1120.56059	0.29427
1118.63191	0.29268
1116.70324	0.29108
1114.77456	0.28952
1112.84589	0.28797
1110.91721	0.28641
1108.98853	0.28485
1107.05986	0.28333
1105.13118	0.28184
1103.20251	0.28034
1101.27383	0.27883
1099.34516	0.27738
1097.41648	0.27602
1095.48780	0.27471
1093.55913	0.27343
1091.63045	0.27222
1089.70178	0.27107
1087.77310	0.26993
1085.84443	0.26883
1083.91575	0.26774
1081.98707	0.26669
1080.05840	0.26572
1078.12972	0.26481
1076.20105	0.26396
1074.27237	0.26323
1072.34370	0.26266
1070.41502	0.26220
1068.48634	0.26181
1066.55767	0.26155
1064.62899	0.26148
1062.70032	0.26158
1060.77164	0.26176
1058.84297	0.26199
1056.91429	0.26229
1054.98561	0.26263
1053.05694	0.26300
1051.12826	0.26345
1049.19959	0.26397
1047.27091	0.26452
1045.34224	0.26516
1043.41356	0.26592
1041.48488	0.26673
1039.55621	0.26749
1037.62753	0.26825
1035.69886	0.26905
1033.77018	0.26984
1031.84151	0.27058
1029.91283	0.27132
1027.98415	0.27209
1026.05548	0.27290
1024.12680	0.27377
1022.19813	0.27470
1020.26945	0.27568
1018.34078	0.27666
1016.41210	0.27770
1014.48342	0.27890
1012.55475	0.28030
1010.62607	0.28176
1008.69740	0.28317
1006.76872	0.28453
1004.84005	0.28584
1002.91137	0.28704
1000.98269	0.28811
999.05402	0.28908
997.12534	0.28997
995.19667	0.29072
993.26799	0.29135
991.33932	0.29195
989.41064	0.29258
987.48196	0.29320
985.55329	0.29380
983.62461	0.29435
981.69594	0.29478
979.76726	0.29508
977.83859	0.29530
975.90991	0.29540
973.98123	0.29538
972.05256	0.29532
970.12388	0.29524
968.19521	0.29515
966.26653	0.29507
964.33786	0.29490
962.40918	0.29463
960.48050	0.29435
958.55183	0.29406
956.62315	0.29372
954.69448	0.29332
952.76580	0.29287
950.83713	0.29240
948.90845	0.29191
946.97977	0.29137
945.05110	0.29080
943.12242	0.29016
941.19375	0.28948
939.26507	0.28886
937.33640	0.28827
935.40772	0.28763
933.47904	0.28699
931.55037	0.28636
929.62169	0.28571
927.69302	0.28506
925.76434	0.28438
923.83567	0.28365
921.90699	0.28293
919.97831	0.28221
918.04964	0.28144
916.12096	0.28063
914.19229	0.27985
912.26361	0.27913
910.33494	0.27841
908.40626	0.27759
906.47758	0.27669
904.54891	0.27579
902.62023	0.27493
900.69156	0.27405
898.76288	0.27313
896.83421	0.27219
894.90553	0.27125
892.97685	0.27030
891.04818	0.26934
889.11950	0.26843
887.19083	0.26760
885.26215	0.26678
883.33348	0.26592
881.40480	0.26503
879.47612	0.26416
877.54745	0.26330
875.61877	0.26245
873.69010	0.26162
871.76142	0.26085
869.83275	0.26014
867.90407	0.25942
865.97539	0.25862
864.04672	0.25768
862.11804	0.25672
860.18937	0.25580
858.26069	0.25487
856.33202	0.25391
854.40334	0.25298
852.47466	0.25207
850.54599	0.25118
848.61731	0.25024
846.68864	0.24923
844.75996	0.24825
842.83129	0.24733
840.90261	0.24640
838.97394	0.24551
837.04526	0.24469
835.11658	0.24380
833.18791	0.24278
831.25923	0.24171
829.33056	0.24055
827.40188	0.23929
825.47321	0.23799
823.54453	0.23683
821.61585	0.23582
819.68718	0.23482
817.75850	0.23379
815.82983	0.23279
813.90115	0.23178
811.97248	0.23070
810.04380	0.22967
808.11512	0.22874
806.18645	0.22784
804.25777	0.22695
802.32910	0.22616
800.40042	0.22543
798.47175	0.22477
796.54307	0.22424
794.61439	0.22385
792.68572	0.22356
790.75704	0.22336
788.82837	0.22319
786.89969	0.22293
784.97102	0.22253
783.04234	0.22205
781.11366	0.22157
779.18499	0.22109
777.25631	0.22052
775.32764	0.21993
773.39896	0.21943
771.47029	0.21894
769.54161	0.21838
767.61293	0.21776
765.68426	0.21714
763.75558	0.21651
761.82691	0.21588
759.89823	0.21520
757.96956	0.21436
756.04088	0.21336
754.11220	0.21230
752.18353	0.21129
750.25485	0.21033
748.32618	0.20938
746.39750	0.20846
744.46883	0.20755
742.54015	0.20658
740.61147	0.20559
738.68280	0.20465
736.75412	0.20378
734.82545	0.20306
732.89677	0.20248
730.96810	0.20185
729.03942	0.20109
727.11074	0.20028
725.18207	0.19955
723.25339	0.19888
721.32472	0.19813
719.39604	0.19733
717.46737	0.19655
715.53869	0.19576
713.61001	0.19492
711.68134	0.19404
709.75266	0.19314
707.82399	0.19222
705.89531	0.19135
703.96664	0.19060
702.03796	0.18994
700.10928	0.18926
698.18061	0.18853
696.25193	0.18776
694.32326	0.18698
692.39458	0.18612
690.46591	0.18515
688.53723	0.18413
686.60855	0.18314
684.67988	0.18219
682.75120	0.18119
680.82253	0.18010
678.89385	0.17896
676.96518	0.17776
675.03650	0.17650
673.10782	0.17514
671.17915	0.17354
669.25047	0.17179
667.32180	0.17029
665.39312	0.16907
663.46445	0.16767
661.53577	0.16603
659.60709	0.16434
657.67842	0.16272
655.74974	0.16124
653.82107	0.15984
651.89239	0.15840
649.96372	0.15690
648.03504	0.15533
646.10636	0.15367
644.17769	0.15196
642.24901	0.15022
640.32034	0.14843
638.39166	0.14661
636.46299	0.14483
634.53431	0.14304
632.60563	0.14117
630.67696	0.13928
628.74828	0.13748
626.81961	0.13572
624.89093	0.13392
622.96226	0.13214
621.03358	0.13043
619.10490	0.12877
617.17623	0.12707
615.24755	0.12523
613.31888	0.12332
611.39020	0.12155
609.46153	0.11988
607.53285	0.11814
605.60417	0.11640
603.67550	0.11481
601.74682	0.11330
599.81815	0.11172
597.88947	0.11017
595.96080	0.10884
594.03212	0.10776
592.10344	0.10678
590.17477	0.10577
588.24609	0.10464
586.31742	0.10342
584.38874	0.10225
582.46007	0.10114
580.53139	0.10004
578.60271	0.09892
576.67404	0.09779
574.74536	0.09672
572.81669	0.09572
570.88801	0.09477
568.95934	0.09388
567.03066	0.09306
565.10198	0.09229
563.17331	0.09148
561.24463	0.09059
559.31596	0.08969
557.38728	0.08893
555.45861	0.08830
553.52993	0.08765
551.60125	0.08700
549.67258	0.08639
547.74390	0.08578
545.81523	0.08515
543.88655	0.08459
541.95788	0.08419
540.02920	0.08387
538.10052	0.08343
536.17185	0.08282
534.24317	0.08223
532.31450	0.08169
530.38582	0.08109
528.45715	0.08044
526.52847	0.07971
524.59979	0.07886
522.67112	0.07797
520.74244	0.07712
518.81377	0.07629
516.88509	0.07548
514.95642	0.07472
513.02774	0.07400
511.09906	0.07318
509.17039	0.07230
507.24171	0.07148
505.31304	0.07059
503.38436	0.06951
501.45569	0.06838
499.52701	0.06731
497.59833	0.06611
495.66966	0.06475
493.74098	0.06338
491.81231	0.06212
489.88363	0.06090
487.95496	0.05962
486.02628	0.05835
484.09760	0.05719
482.16893	0.05611
480.24025	0.05498
478.31158	0.05374
476.38290	0.05244
474.45423	0.05118
472.52555	0.05001
470.59687	0.04899
468.66820	0.04809
466.73952	0.04735
464.81085	0.04675
462.88217	0.04626
460.95350	0.04590
459.02482	0.04563
457.09614	0.04540
455.16747	0.04534
453.23879	0.04532
451.31012	0.04517
449.38144	0.04493
447.45277	0.04467
445.52409	0.04437
443.59541	0.04401
441.66674	0.04341
439.73806	0.04250
437.80939	0.04145
435.88071	0.04047
433.95204	0.03949
432.02336	0.03845
430.09468	0.03733
428.16601	0.03604
426.23733	0.03464
424.30866	0.03331
422.37998	0.03206
420.45131	0.03080
418.52263	0.02952
416.59395	0.02820
414.66528	0.02695
412.73660	0.02581
410.80793	0.02463
408.87925	0.02336
406.95058	0.02205
405.02190	0.02077
403.09322	0.01960
401.16455	0.01853
399.23587	0.01747
397.30720	0.01642
395.37852	0.01537
393.44985	0.01435
391.52117	0.01353
389.59249	0.01283
387.66382	0.01203
385.73514	0.01114
383.80647	0.01027
381.87779	0.00955
379.94912	0.00899
378.02044	0.00838
376.09176	0.00763
374.16309	0.00689
372.23441	0.00623
370.30574	0.00553
368.37706	0.00475
