7496.76250	0.00227
7494.83382	0.00225
7492.90514	0.00225
7490.97647	0.00227
7489.04779	0.00229
7487.11912	0.00231
7485.19044	0.00232
7483.26177	0.00231
7481.33309	0.00231
7479.40441	0.00233
7477.47574	0.00235
7475.54706	0.00235
7473.61839	0.00236
7471.68971	0.00238
7469.76104	0.00239
7467.83236	0.00240
7465.90368	0.00241
7463.97501	0.00240
7462.04633	0.00239
7460.11766	0.00240
7458.18898	0.00241
7456.26031	0.00243
7454.33163	0.00243
7452.40295	0.00243
7450.47428	0.00243
7448.54560	0.00242
7446.61693	0.00242
7444.68825	0.00243
7442.75958	0.00244
7440.83090	0.00246
7438.90222	0.00246
7436.97355	0.00247
7435.04487	0.00248
7433.11620	0.00249
7431.18752	0.00249
7429.25885	0.00250
7427.33017	0.00251
7425.40149	0.00252
7423.47282	0.00252
7421.54414	0.00253
7419.61547	0.00253
7417.68679	0.00253
7415.75812	0.00253
7413.82944	0.00254
7411.90076	0.00257
7409.97209	0.00259
7408.04341	0.00260
7406.11474	0.00259
7404.18606	0.00259
7402.25739	0.00259
7400.32871	0.00259
7398.40003	0.00259
7396.47136	0.00259
7394.54268	0.00260
7392.61401	0.00263
7390.68533	0.00265
7388.75666	0.00266
7386.82798	0.00266
7384.89930	0.00266
7382.97063	0.00268
7381.04195	0.00269
7379.11328	0.00269
7377.18460	0.00267
7375.25593	0.00265
7373.32725	0.00266
7371.39857	0.00268
7369.46990	0.00270
7367.54122	0.00270
7365.61255	0.00271
7363.68387	0.00272
7361.75520	0.00273
7359.82652	0.00273
7357.89784	0.00273
7355.96917	0.00273
7354.04049	0.00274
7352.11182	0.00274
7350.18314	0.00275
7348.25447	0.00277
7346.32579	0.00279
7344.39711	0.00279
7342.46844	0.00279
7340.53976	0.00280
7338.61109	0.00280
7336.68241	0.00280
7334.75374	0.00281
7332.82506	0.00283
7330.89638	0.00285
7328.96771	0.00286
7327.03903	0.00287
7325.11036	0.00288
7323.18168	0.00288
7321.25301	0.00289
7319.32433	0.00290
7317.39565	0.00292
7315.46698	0.00292
7313.53830	0.00293
7311.60963	0.00294
7309.68095	0.00295
7307.75228	0.00294
7305.82360	0.00294
7303.89492	0.00293
7301.96625	0.00293
7300.03757	0.00293
7298.10890	0.00295
7296.18022	0.00296
7294.25155	0.00296
7292.32287	0.00297
7290.39419	0.00298
7288.46552	0.00298
7286.53684	0.00298
7284.60817	0.00298
7282.67949	0.00299
7280.75082	0.00302
7278.82214	0.00304
7276.89346	0.00305
7274.96479	0.00305
7273.03611	0.00304
7271.10744	0.00305
7269.17876	0.00306
7267.25009	0.00307
7265.32141	0.00307
7263.39273	0.00307
7261.46406	0.00308
7259.53538	0.00309
7257.60671	0.00310
7255.67803	0.00311
7253.74936	0.00311
7251.82068	0.00311
7249.89200	0.00311
7247.96333	0.00311
7246.03465	0.00312
7244.10598	0.00313
7242.17730	0.00315
7240.24863	0.00318
7238.31995	0.00319
7236.39127	0.00319
7234.46260	0.00318
7232.53392	0.00318
7230.60525	0.00320
7228.67657	0.00322
7226.74790	0.00323
7224.81922	0.00324
7222.89054	0.00324
7220.96187	0.00324
7219.03319	0.00325
7217.10452	0.00325
7215.17584	0.00325
7213.24717	0.00326
7211.31849	0.00327
7209.38981	0.00327
7207.46114	0.00328
7205.53246	0.00329
7203.60379	0.00330
7201.67511	0.00331
7199.74644	0.00333
7197.81776	0.00333
7195.88908	0.00333
7193.96041	0.00334
7192.03173	0.00335
7190.10306	0.00335
7188.17438	0.00334
7186.24571	0.00333
7184.31703	0.00334
7182.38835	0.00337
7180.45968	0.00339
7178.53100	0.00342
7176.60233	0.00343
7174.67365	0.00344
7172.74498	0.00345
7170.81630	0.00346
7168.88762	0.00346
7166.95895	0.00346
7165.03027	0.00346
7163.10160	0.00347
7161.17292	0.00348
7159.24425	0.00348
7157.31557	0.00349
7155.38689	0.00350
7153.45822	0.00351
7151.52954	0.00352
7149.60087	0.00352
7147.67219	0.00352
7145.74352	0.00352
7143.81484	0.00352
7141.88616	0.00353
7139.95749	0.00355
7138.02881	0.00356
7136.10014	0.00355
7134.17146	0.00356
7132.24279	0.00358
7130.31411	0.00361
7128.38543	0.00362
7126.45676	0.00362
7124.52808	0.00362
7122.59941	0.00364
7120.67073	0.00365
7118.74206	0.00366
7116.81338	0.00366
7114.88470	0.00368
7112.95603	0.00370
7111.02735	0.00371
7109.09868	0.00372
7107.17000	0.00372
7105.24133	0.00373
7103.31265	0.00373
7101.38397	0.00373
7099.45530	0.00373
7097.52662	0.00372
7095.59795	0.00373
7093.66927	0.00374
7091.74060	0.00376
7089.81192	0.00377
7087.88324	0.00378
7085.95457	0.00379
7084.02589	0.00379
7082.09722	0.00379
7080.16854	0.00380
7078.23987	0.00381
7076.31119	0.00383
7074.38251	0.00384
7072.45384	0.00385
7070.52516	0.00385
7068.59649	0.00385
7066.66781	0.00385
7064.73914	0.00387
7062.81046	0.00389
7060.88178	0.00391
7058.95311	0.00392
7057.02443	0.00392
7055.09576	0.00394
7053.16708	0.00394
7051.23841	0.00393
7049.30973	0.00393
7047.38105	0.00394
7045.45238	0.00395
7043.52370	0.00396
7041.59503	0.00398
7039.66635	0.00399
7037.73768	0.00400
7035.80900	0.00401
7033.88032	0.00403
7031.95165	0.00404
7030.02297	0.00404
7028.09430	0.00404
7026.16562	0.00405
7024.23695	0.00406
7022.30827	0.00408
7020.37959	0.00409
7018.45092	0.00409
7016.52224	0.00409
7014.59357	0.00409
7012.66489	0.00409
7010.73622	0.00410
7008.80754	0.00412
7006.87886	0.00414
7004.95019	0.00415
7003.02151	0.00415
7001.09284	0.00416
6999.16416	0.00417
6997.23549	0.00417
6995.30681	0.00417
6993.37813	0.00418
6991.44946	0.00420
6989.52078	0.00422
6987.59211	0.00423
6985.66343	0.00422
6983.73476	0.00423
6981.80608	0.00425
6979.87740	0.00427
6977.94873	0.00429
6976.02005	0.00431
6974.09138	0.00432
6972.16270	0.00432
6970.23403	0.00431
6968.30535	0.00431
6966.37667	0.00433
6964.44800	0.00435
6962.51932	0.00436
6960.59065	0.00436
6958.66197	0.00436
6956.73330	0.00438
6954.80462	0.00438
6952.87594	0.00439
6950.94727	0.00441
6949.01859	0.00442
6947.08992	0.00442
6945.16124	0.00443
6943.23257	0.00445
6941.30389	0.00445
6939.37521	0.00445
6937.44654	0.00445
6935.51786	0.00447
6933.58919	0.00448
6931.66051	0.00448
6929.73184	0.00449
6927.80316	0.00449
6925.87448	0.00450
6923.94581	0.00451
6922.01713	0.00451
6920.08846	0.00452
6918.15978	0.00454
6916.23111	0.00456
6914.30243	0.00458
6912.37375	0.00460
6910.44508	0.00461
6908.51640	0.00460
6906.58773	0.00461
6904.65905	0.00464
6902.73038	0.00466
6900.80170	0.00467
6898.87302	0.00466
6896.94435	0.00465
6895.01567	0.00465
6893.08700	0.00467
6891.15832	0.00469
6889.22965	0.00470
6887.30097	0.00471
6885.37229	0.00471
6883.44362	0.00472
6881.51494	0.00473
6879.58627	0.00474
6877.65759	0.00476
6875.72892	0.00476
6873.80024	0.00477
6871.87156	0.00480
6869.94289	0.00482
6868.01421	0.00482
6866.08554	0.00481
6864.15686	0.00481
6862.22819	0.00483
6860.29951	0.00484
6858.37083	0.00486
6856.44216	0.00487
6854.51348	0.00488
6852.58481	0.00490
6850.65613	0.00491
6848.72746	0.00491
6846.79878	0.00492
6844.87010	0.00493
6842.94143	0.00494
6841.01275	0.00496
6839.08408	0.00497
6837.15540	0.00496
6835.22673	0.00497
6833.29805	0.00499
6831.36937	0.00501
6829.44070	0.00502
6827.51202	0.00504
6825.58335	0.00506
6823.65467	0.00506
6821.72600	0.00505
6819.79732	0.00506
6817.86864	0.00507
6815.93997	0.00508
6814.01129	0.00508
6812.08262	0.00510
6810.15394	0.00511
6808.22527	0.00513
6806.29659	0.00516
6804.36791	0.00517
6802.43924	0.00517
6800.51056	0.00518
6798.58189	0.00519
6796.65321	0.00521
6794.72454	0.00522
6792.79586	0.00524
6790.86718	0.00524
6788.93851	0.00524
6787.00983	0.00525
6785.08116	0.00527
6783.15248	0.00528
6781.22381	0.00529
6779.29513	0.00530
6777.36645	0.00531
6775.43778	0.00532
6773.50910	0.00534
6771.58043	0.00535
6769.65175	0.00534
6767.72308	0.00533
6765.79440	0.00534
6763.86572	0.00535
6761.93705	0.00537
6760.00837	0.00539
6758.07970	0.00541
6756.15102	0.00543
6754.22235	0.00545
6752.29367	0.00545
6750.36499	0.00544
6748.43632	0.00545
6746.50764	0.00547
6744.57897	0.00551
6742.65029	0.00552
6740.72162	0.00552
6738.79294	0.00551
6736.86426	0.00551
6734.93559	0.00552
6733.00691	0.00554
6731.07824	0.00555
6729.14956	0.00556
6727.22089	0.00558
6725.29221	0.00559
6723.36353	0.00561
6721.43486	0.00562
6719.50618	0.00564
6717.57751	0.00566
6715.64883	0.00568
6713.72016	0.00569
6711.79148	0.00570
6709.86280	0.00571
6707.93413	0.00573
6706.00545	0.00575
6704.07678	0.00575
6702.14810	0.00576
6700.21943	0.00577
6698.29075	0.00578
6696.36207	0.00580
6694.43340	0.00581
6692.50472	0.00581
6690.57605	0.00581
6688.64737	0.00582
6686.71870	0.00583
6684.79002	0.00584
6682.86134	0.00585
6680.93267	0.00586
6679.00399	0.00588
6677.07532	0.00591
6675.14664	0.00592
6673.21797	0.00593
6671.28929	0.00594
6669.36061	0.00595
6667.43194	0.00596
6665.50326	0.00597
6663.57459	0.00599
6661.64591	0.00601
6659.71724	0.00602
6657.78856	0.00603
6655.85988	0.00604
6653.93121	0.00605
6652.00253	0.00605
6650.07386	0.00605
6648.14518	0.00606
6646.21651	0.00608
6644.28783	0.00609
6642.35915	0.00611
6640.43048	0.00614
6638.50180	0.00617
6636.57313	0.00618
6634.64445	0.00619
6632.71578	0.00620
6630.78710	0.00622
6628.85842	0.00622
6626.92975	0.00623
6625.00107	0.00624
6623.07240	0.00626
6621.14372	0.00627
6619.21505	0.00627
6617.28637	0.00628
6615.35769	0.00630
6613.42902	0.00633
6611.50034	0.00636
6609.57167	0.00637
6607.64299	0.00637
6605.71432	0.00637
6603.78564	0.00637
6601.85696	0.00638
6599.92829	0.00640
6597.99961	0.00642
6596.07094	0.00644
6594.14226	0.00646
6592.21359	0.00646
6590.28491	0.00647
6588.35623	0.00649
6586.42756	0.00649
6584.49888	0.00650
6582.57021	0.00651
6580.64153	0.00654
6578.71286	0.00656
6576.78418	0.00657
6574.85550	0.00658
6572.92683	0.00660
6570.99815	0.00662
6569.06948	0.00663
6567.14080	0.00663
6565.21213	0.00664
6563.28345	0.00665
6561.35477	0.00666
6559.42610	0.00668
6557.49742	0.00669
6555.56875	0.00670
6553.64007	0.00672
6551.71140	0.00675
6549.78272	0.00676
6547.85404	0.00677
6545.92537	0.00679
6543.99669	0.00681
6542.06802	0.00683
6540.13934	0.00684
6538.21067	0.00686
6536.28199	0.00687
6534.35331	0.00687
6532.42464	0.00688
6530.49596	0.00690
6528.56729	0.00692
6526.63861	0.00693
6524.70994	0.00694
6522.78126	0.00695
6520.85258	0.00696
6518.92391	0.00697
6516.99523	0.00699
6515.06656	0.00701
6513.13788	0.00702
6511.20921	0.00703
6509.28053	0.00704
6507.35185	0.00705
6505.42318	0.00707
6503.49450	0.00709
6501.56583	0.00712
6499.63715	0.00714
6497.70848	0.00716
6495.77980	0.00716
6493.85112	0.00717
6491.92245	0.00719
6489.99377	0.00721
6488.06510	0.00723
6486.13642	0.00725
6484.20775	0.00727
6482.27907	0.00728
6480.35039	0.00728
6478.42172	0.00728
6476.49304	0.00730
6474.56437	0.00734
6472.63569	0.00737
6470.70702	0.00737
6468.77834	0.00736
6466.84966	0.00738
6464.92099	0.00740
6462.99231	0.00742
6461.06364	0.00745
6459.13496	0.00747
6457.20629	0.00747
6455.27761	0.00747
6453.34893	0.00750
6451.42026	0.00752
6449.49158	0.00754
6447.56291	0.00755
6445.63423	0.00757
6443.70556	0.00759
6441.77688	0.00760
6439.84820	0.00760
6437.91953	0.00762
6435.99085	0.00765
6434.06218	0.00767
6432.13350	0.00770
6430.20483	0.00772
6428.27615	0.00773
6426.34747	0.00774
6424.41880	0.00773
6422.49012	0.00773
6420.56145	0.00776
6418.63277	0.00779
6416.70410	0.00781
6414.77542	0.00782
6412.84674	0.00782
6410.91807	0.00783
6408.98939	0.00785
6407.06072	0.00787
6405.13204	0.00789
6403.20337	0.00790
6401.27469	0.00790
6399.34601	0.00791
6397.41734	0.00793
6395.48866	0.00796
6393.55999	0.00799
6391.63131	0.00801
6389.70264	0.00802
6387.77396	0.00804
6385.84528	0.00807
6383.91661	0.00808
6381.98793	0.00808
6380.05926	0.00810
6378.13058	0.00813
6376.20191	0.00815
6374.27323	0.00815
6372.34455	0.00815
6370.41588	0.00817
6368.48720	0.00820
6366.55853	0.00824
6364.62985	0.00827
6362.70118	0.00828
6360.77250	0.00830
6358.84382	0.00832
6356.91515	0.00835
6354.98647	0.00834
6353.05780	0.00833
6351.12912	0.00834
6349.20045	0.00836
6347.27177	0.00838
6345.34309	0.00840
6343.41442	0.00842
6341.48574	0.00845
6339.55707	0.00847
6337.62839	0.00849
6335.69972	0.00852
6333.77104	0.00854
6331.84236	0.00855
6329.91369	0.00856
6327.98501	0.00857
6326.05634	0.00861
6324.12766	0.00864
6322.19899	0.00867
6320.27031	0.00868
6318.34163	0.00868
6316.41296	0.00868
6314.48428	0.00869
6312.55561	0.00870
6310.62693	0.00871
6308.69826	0.00873
6306.76958	0.00876
6304.84090	0.00879
6302.91223	0.00882
6300.98355	0.00884
6299.05488	0.00886
6297.12620	0.00888
6295.19753	0.00891
6293.26885	0.00893
6291.34017	0.00894
6289.41150	0.00894
6287.48282	0.00896
6285.55415	0.00899
6283.62547	0.00900
6281.69680	0.00900
6279.76812	0.00901
6277.83944	0.00903
6275.91077	0.00905
6273.98209	0.00907
6272.05342	0.00910
6270.12474	0.00912
6268.19607	0.00913
6266.26739	0.00914
6264.33871	0.00917
6262.41004	0.00920
6260.48136	0.00922
6258.55269	0.00923
6256.62401	0.00926
6254.69534	0.00929
6252.76666	0.00931
6250.83798	0.00932
6248.90931	0.00933
6246.98063	0.00935
6245.05196	0.00938
6243.12328	0.00941
6241.19461	0.00943
6239.26593	0.00944
6237.33725	0.00945
6235.40858	0.00947
6233.47990	0.00950
6231.55123	0.00952
6229.62255	0.00954
6227.69388	0.00957
6225.76520	0.00959
6223.83652	0.00960
6221.90785	0.00962
6219.97917	0.00964
6218.05050	0.00967
6216.12182	0.00969
6214.19315	0.00970
6212.26447	0.00970
6210.33579	0.00971
6208.40712	0.00973
6206.47844	0.00975
6204.54977	0.00976
6202.62109	0.00978
6200.69242	0.00981
6198.76374	0.00984
6196.83506	0.00987
6194.90639	0.00989
6192.97771	0.00991
6191.04904	0.00994
6189.12036	0.00996
6187.19169	0.00999
6185.26301	0.01000
6183.33433	0.01001
6181.40566	0.01004
6179.47698	0.01006
6177.54831	0.01006
6175.61963	0.01008
6173.69096	0.01010
6171.76228	0.01013
6169.83360	0.01016
6167.90493	0.01018
6165.97625	0.01019
6164.04758	0.01020
6162.11890	0.01022
6160.19023	0.01024
6158.26155	0.01027
6156.33287	0.01030
6154.40420	0.01033
6152.47552	0.01034
6150.54685	0.01036
6148.61817	0.01039
6146.68950	0.01040
6144.76082	0.01043
6142.83214	0.01046
6140.90347	0.01049
6138.97479	0.01051
6137.04612	0.01053
6135.11744	0.01055
6133.18877	0.01058
6131.26009	0.01060
6129.33141	0.01060
6127.40274	0.01061
6125.47406	0.01064
6123.54539	0.01066
6121.61671	0.01068
6119.68804	0.01071
6117.75936	0.01075
6115.83068	0.01076
6113.90201	0.01077
6111.97333	0.01078
6110.04466	0.01081
6108.11598	0.01084
6106.18731	0.01086
6104.25863	0.01088
6102.32995	0.01091
6100.40128	0.01094
6098.47260	0.01098
6096.54393	0.01101
6094.61525	0.01102
6092.68658	0.01103
6090.75790	0.01104
6088.82922	0.01107
6086.90055	0.01112
6084.97187	0.01117
6083.04320	0.01119
6081.11452	0.01120
6079.18585	0.01121
6077.25717	0.01122
6075.32849	0.01124
6073.39982	0.01125
6071.47114	0.01128
6069.54247	0.01131
6067.61379	0.01132
6065.68512	0.01133
6063.75644	0.01136
6061.82776	0.01141
6059.89909	0.01144
6057.97041	0.01146
6056.04174	0.01146
6054.11306	0.01148
6052.18439	0.01150
6050.25571	0.01152
6048.32703	0.01154
6046.39836	0.01157
6044.46968	0.01161
6042.54101	0.01165
6040.61233	0.01166
6038.68366	0.01168
6036.75498	0.01171
6034.82630	0.01174
6032.89763	0.01176
6030.96895	0.01177
6029.04028	0.01180
6027.11160	0.01184
6025.18293	0.01186
6023.25425	0.01188
6021.32557	0.01191
6019.39690	0.01193
6017.46822	0.01196
6015.53955	0.01197
6013.61087	0.01198
6011.68220	0.01202
6009.75352	0.01205
6007.82484	0.01208
6005.89617	0.01212
6003.96749	0.01213
6002.03882	0.01213
6000.11014	0.01213
5998.18147	0.01215
5996.25279	0.01219
5994.32411	0.01223
5992.39544	0.01227
5990.46676	0.01229
5988.53809	0.01232
5986.60941	0.01234
5984.68074	0.01237
5982.75206	0.01239
5980.82338	0.01241
5978.89471	0.01244
5976.96603	0.01249
5975.03736	0.01252
5973.10868	0.01253
5971.18001	0.01255
5969.25133	0.01258
5967.32265	0.01262
5965.39398	0.01263
5963.46530	0.01264
5961.53663	0.01267
5959.60795	0.01270
5957.67928	0.01274
5955.75060	0.01277
5953.82192	0.01279
5951.89325	0.01280
5949.96457	0.01282
5948.03590	0.01284
5946.10722	0.01287
5944.17855	0.01290
5942.24987	0.01292
5940.32119	0.01296
5938.39252	0.01300
5936.46384	0.01302
5934.53517	0.01304
5932.60649	0.01306
5930.67782	0.01309
5928.74914	0.01313
5926.82046	0.01316
5924.89179	0.01318
5922.96311	0.01320
5921.03444	0.01324
5919.10576	0.01328
5917.17709	0.01330
5915.24841	0.01331
5913.31973	0.01333
5911.39106	0.01336
5909.46238	0.01339
5907.53371	0.01340
5905.60503	0.01341
5903.67636	0.01344
5901.74768	0.01348
5899.81900	0.01351
5897.89033	0.01354
5895.96165	0.01357
5894.03298	0.01359
5892.10430	0.01363
5890.17563	0.01366
5888.24695	0.01370
5886.31827	0.01373
5884.38960	0.01374
5882.46092	0.01376
5880.53225	0.01380
5878.60357	0.01384
5876.67490	0.01387
5874.74622	0.01389
5872.81755	0.01391
5870.88887	0.01393
5868.96019	0.01396
5867.03152	0.01400
5865.10284	0.01404
5863.17417	0.01406
5861.24549	0.01409
5859.31682	0.01412
5857.38814	0.01415
5855.45946	0.01416
5853.53079	0.01417
5851.60211	0.01419
5849.67344	0.01423
5847.74476	0.01428
5845.81609	0.01432
5843.88741	0.01436
5841.95873	0.01438
5840.03006	0.01441
5838.10138	0.01443
5836.17271	0.01445
5834.24403	0.01448
5832.31536	0.01452
5830.38668	0.01455
5828.45800	0.01457
5826.52933	0.01459
5824.60065	0.01463
5822.67198	0.01467
5820.74330	0.01469
5818.81463	0.01471
5816.88595	0.01474
5814.95727	0.01477
5813.02860	0.01481
5811.09992	0.01485
5809.17125	0.01488
5807.24257	0.01492
5805.31390	0.01494
5803.38522	0.01496
5801.45654	0.01500
5799.52787	0.01505
5797.59919	0.01509
5795.67052	0.01511
5793.74184	0.01512
5791.81317	0.01513
5789.88449	0.01516
5787.95581	0.01521
5786.02714	0.01525
5784.09846	0.01528
5782.16979	0.01530
5780.24111	0.01531
5778.31244	0.01534
5776.38376	0.01537
5774.45508	0.01541
5772.52641	0.01544
5770.59773	0.01547
5768.66906	0.01550
5766.74038	0.01553
5764.81171	0.01556
5762.88303	0.01559
5760.95435	0.01562
5759.02568	0.01565
5757.09700	0.01570
5755.16833	0.01575
5753.23965	0.01578
5751.31098	0.01582
5749.38230	0.01586
5747.45362	0.01589
5745.52495	0.01591
5743.59627	0.01592
5741.66760	0.01594
5739.73892	0.01597
5737.81025	0.01599
5735.88157	0.01602
5733.95289	0.01607
5732.02422	0.01610
5730.09554	0.01614
5728.16687	0.01618
5726.23819	0.01623
5724.30952	0.01628
5722.38084	0.01632
5720.45216	0.01635
5718.52349	0.01637
5716.59481	0.01638
5714.66614	0.01640
5712.73746	0.01642
5710.80879	0.01645
5708.88011	0.01647
5706.95143	0.01650
5705.02276	0.01654
5703.09408	0.01659
5701.16541	0.01663
5699.23673	0.01666
5697.30806	0.01670
5695.37938	0.01673
5693.45070	0.01674
5691.52203	0.01675
5689.59335	0.01677
5687.66468	0.01681
5685.73600	0.01687
5683.80733	0.01690
5681.87865	0.01693
5679.94997	0.01696
5678.02130	0.01700
5676.09262	0.01704
5674.16395	0.01709
5672.23527	0.01713
5670.30660	0.01716
5668.37792	0.01719
5666.44924	0.01721
5664.52057	0.01723
5662.59189	0.01727
5660.66322	0.01732
5658.73454	0.01736
5656.80587	0.01741
5654.87719	0.01746
5652.94851	0.01749
5651.01984	0.01750
5649.09116	0.01751
5647.16249	0.01755
5645.23381	0.01760
5643.30514	0.01765
5641.37646	0.01769
5639.44778	0.01773
5637.51911	0.01776
5635.59043	0.01778
5633.66176	0.01780
5631.73308	0.01783
5629.80441	0.01787
5627.87573	0.01790
5625.94705	0.01794
5624.01838	0.01798
5622.08970	0.01801
5620.16103	0.01805
5618.23235	0.01809
5616.30368	0.01814
5614.37500	0.01818
5612.44632	0.01821
5610.51765	0.01823
5608.58897	0.01824
5606.66030	0.01827
5604.73162	0.01832
5602.80295	0.01837
5600.87427	0.01840
5598.94559	0.01845
5597.01692	0.01849
5595.08824	0.01853
5593.15957	0.01857
5591.23089	0.01860
5589.30222	0.01862
5587.37354	0.01865
5585.44486	0.01868
5583.51619	0.01871
5581.58751	0.01874
5579.65884	0.01879
5577.73016	0.01884
5575.80149	0.01887
5573.87281	0.01890
5571.94413	0.01894
5570.01546	0.01897
5568.08678	0.01899
5566.15811	0.01902
5564.22943	0.01905
5562.30076	0.01909
5560.37208	0.01915
5558.44340	0.01919
5556.51473	0.01920
5554.58605	0.01923
5552.65738	0.01926
5550.72870	0.01929
5548.80003	0.01935
5546.87135	0.01941
5544.94267	0.01946
5543.01400	0.01950
5541.08532	0.01952
5539.15665	0.01953
5537.22797	0.01955
5535.29930	0.01958
5533.37062	0.01964
5531.44194	0.01968
5529.51327	0.01972
5527.58459	0.01976
5525.65592	0.01980
5523.72724	0.01984
5521.79857	0.01988
5519.86989	0.01990
5517.94121	0.01992
5516.01254	0.01996
5514.08386	0.01999
5512.15519	0.02003
5510.22651	0.02009
5508.29784	0.02013
5506.36916	0.02016
5504.44048	0.02019
5502.51181	0.02024
5500.58313	0.02027
5498.65446	0.02030
5496.72578	0.02035
5494.79711	0.02039
5492.86843	0.02045
5490.93975	0.02050
5489.01108	0.02054
5487.08240	0.02058
5485.15373	0.02060
5483.22505	0.02063
5481.29638	0.02066
5479.36770	0.02069
5477.43902	0.02072
5475.51035	0.02077
5473.58167	0.02084
5471.65300	0.02090
5469.72432	0.02094
5467.79565	0.02096
5465.86697	0.02097
5463.93829	0.02099
5462.00962	0.02102
5460.08094	0.02107
5458.15227	0.02112
5456.22359	0.02116
5454.29492	0.02121
5452.36624	0.02127
5450.43756	0.02132
5448.50889	0.02136
5446.58021	0.02139
5444.65154	0.02140
5442.72286	0.02142
5440.79419	0.02146
5438.86551	0.02152
5436.93683	0.02157
5435.00816	0.02161
5433.07948	0.02164
5431.15081	0.02166
5429.22213	0.02170
5427.29346	0.02176
5425.36478	0.02182
5423.43610	0.02187
5421.50743	0.02191
5419.57875	0.02196
5417.65008	0.02199
5415.72140	0.02201
5413.79273	0.02204
5411.86405	0.02207
5409.93537	0.02210
5408.00670	0.02215
5406.07802	0.02220
5404.14935	0.02225
5402.22067	0.02230
5400.29200	0.02233
5398.36332	0.02236
5396.43464	0.02239
5394.50597	0.02242
5392.57729	0.02246
5390.64862	0.02251
5388.71994	0.02257
5386.79127	0.02262
5384.86259	0.02265
5382.93391	0.02269
5381.00524	0.02274
5379.07656	0.02277
5377.14789	0.02279
5375.21921	0.02284
5373.29054	0.02291
5371.36186	0.02296
5369.43318	0.02299
5367.50451	0.02301
5365.57583	0.02305
5363.64716	0.02310
5361.71848	0.02316
5359.78981	0.02322
5357.86113	0.02326
5355.93245	0.02328
5354.00378	0.02329
5352.07510	0.02334
5350.14643	0.02339
5348.21775	0.02343
5346.28908	0.02345
5344.36040	0.02348
5342.43172	0.02354
5340.50305	0.02359
5338.57437	0.02362
5336.64570	0.02368
5334.71702	0.02375
5332.78835	0.02381
5330.85967	0.02384
5328.93099	0.02387
5327.00232	0.02392
5325.07364	0.02398
5323.14497	0.02403
5321.21629	0.02406
5319.28762	0.02410
5317.35894	0.02414
5315.43026	0.02418
5313.50159	0.02421
5311.57291	0.02424
5309.64424	0.02427
5307.71556	0.02431
5305.78689	0.02437
5303.85821	0.02442
5301.92953	0.02447
5300.00086	0.02451
5298.07218	0.02456
5296.14351	0.02461
5294.21483	0.02464
5292.28616	0.02467
5290.35748	0.02470
5288.42880	0.02474
5286.50013	0.02479
5284.57145	0.02485
5282.64278	0.02490
5280.71410	0.02495
5278.78543	0.02500
5276.85675	0.02503
5274.92807	0.02505
5272.99940	0.02508
5271.07072	0.02512
5269.14205	0.02517
5267.21337	0.02522
5265.28470	0.02526
5263.35602	0.02530
5261.42734	0.02536
5259.49867	0.02543
5257.56999	0.02549
5255.64132	0.02553
5253.71264	0.02556
5251.78397	0.02559
5249.85529	0.02562
5247.92661	0.02565
5245.99794	0.02572
5244.06926	0.02578
5242.14059	0.02583
5240.21191	0.02587
5238.28324	0.02591
5236.35456	0.02595
5234.42588	0.02598
5232.49721	0.02602
5230.56853	0.02607
5228.63986	0.02612
5226.71118	0.02617
5224.78251	0.02621
5222.85383	0.02625
5220.92515	0.02630
5218.99648	0.02634
5217.06780	0.02637
5215.13913	0.02642
5213.21045	0.02648
5211.28178	0.02653
5209.35310	0.02658
5207.42442	0.02661
5205.49575	0.02666
5203.56707	0.02671
5201.63840	0.02676
5199.70972	0.02680
5197.78105	0.02684
5195.85237	0.02690
5193.92369	0.02694
5191.99502	0.02699
5190.06634	0.02704
5188.13767	0.02708
5186.20899	0.02711
5184.28032	0.02715
5182.35164	0.02720
5180.42296	0.02724
5178.49429	0.02729
5176.56561	0.02732
5174.63694	0.02735
5172.70826	0.02739
5170.77959	0.02744
5168.85091	0.02749
5166.92223	0.02755
5164.99356	0.02760
5163.06488	0.02765
5161.13621	0.02770
5159.20753	0.02774
5157.27886	0.02778
5155.35018	0.02784
5153.42150	0.02791
5151.49283	0.02797
5149.56415	0.02800
5147.63548	0.02802
5145.70680	0.02807
5143.77813	0.02812
5141.84945	0.02818
5139.92077	0.02822
5137.99210	0.02826
5136.06342	0.02833
5134.13475	0.02837
5132.20607	0.02838
5130.27740	0.02841
5128.34872	0.02847
5126.42004	0.02853
5124.49137	0.02859
5122.56269	0.02865
5120.63402	0.02871
5118.70534	0.02876
5116.77667	0.02882
5114.84799	0.02887
5112.91931	0.02892
5110.99064	0.02896
5109.06196	0.02900
5107.13329	0.02904
5105.20461	0.02908
5103.27594	0.02911
5101.34726	0.02915
5099.41858	0.02919
5097.48991	0.02924
5095.56123	0.02929
5093.63256	0.02936
5091.70388	0.02943
5089.77521	0.02947
5087.84653	0.02949
5085.91785	0.02951
5083.98918	0.02956
5082.06050	0.02963
5080.13183	0.02970
5078.20315	0.02976
5076.27448	0.02981
5074.34580	0.02985
5072.41712	0.02989
5070.48845	0.02994
5068.55977	0.03000
5066.63110	0.03006
5064.70242	0.03011
5062.77375	0.03015
5060.84507	0.03019
5058.91639	0.03023
5056.98772	0.03030
5055.05904	0.03036
5053.13037	0.03039
5051.20169	0.03042
5049.27302	0.03047
5047.34434	0.03053
5045.41566	0.03058
5043.48699	0.03061
5041.55831	0.03065
5039.62964	0.03070
5037.70096	0.03075
5035.77229	0.03078
5033.84361	0.03083
5031.91493	0.03089
5029.98626	0.03093
5028.05758	0.03098
5026.12891	0.03103
5024.20023	0.03111
5022.27156	0.03119
5020.34288	0.03124
5018.41420	0.03128
5016.48553	0.03132
5014.55685	0.03137
5012.62818	0.03144
5010.69950	0.03149
5008.77083	0.03151
5006.84215	0.03153
5004.91347	0.03158
5002.98480	0.03164
5001.05612	0.03170
4999.12745	0.03178
4997.19877	0.03185
4995.27010	0.03189
4993.34142	0.03192
4991.41274	0.03197
4989.48407	0.03204
4987.55539	0.03211
4985.62672	0.03216
4983.69804	0.03221
4981.76937	0.03226
4979.84069	0.03231
4977.91201	0.03236
4975.98334	0.03240
4974.05466	0.03244
4972.12599	0.03248
4970.19731	0.03254
4968.26864	0.03262
4966.33996	0.03268
4964.41128	0.03272
4962.48261	0.03274
4960.55393	0.03277
4958.62526	0.03281
4956.69658	0.03287
4954.76791	0.03294
4952.83923	0.03302
4950.91055	0.03308
4948.98188	0.03314
4947.05320	0.03320
4945.12453	0.03324
4943.19585	0.03328
4941.26718	0.03332
4939.33850	0.03337
4937.40982	0.03344
4935.48115	0.03350
4933.55247	0.03354
4931.62380	0.03358
4929.69512	0.03365
4927.76645	0.03372
4925.83777	0.03378
4923.90909	0.03385
4921.98042	0.03392
4920.05174	0.03396
4918.12307	0.03399
4916.19439	0.03402
4914.26572	0.03407
4912.33704	0.03412
4910.40836	0.03418
4908.47969	0.03423
4906.55101	0.03429
4904.62234	0.03434
4902.69366	0.03441
4900.76499	0.03448
4898.83631	0.03454
4896.90763	0.03459
4894.97896	0.03464
4893.05028	0.03469
4891.12161	0.03473
4889.19293	0.03476
4887.26426	0.03480
4885.33558	0.03487
4883.40690	0.03495
4881.47823	0.03502
4879.54955	0.03508
4877.62088	0.03512
4875.69220	0.03516
4873.76353	0.03520
4871.83485	0.03526
4869.90617	0.03530
4867.97750	0.03535
4866.04882	0.03540
4864.12015	0.03546
4862.19147	0.03553
4860.26280	0.03560
4858.33412	0.03566
4856.40544	0.03571
4854.47677	0.03577
4852.54809	0.03583
4850.61942	0.03588
4848.69074	0.03592
4846.76207	0.03597
4844.83339	0.03604
4842.90471	0.03611
4840.97604	0.03617
4839.04736	0.03621
4837.11869	0.03625
4835.19001	0.03633
4833.26134	0.03641
4831.33266	0.03647
4829.40398	0.03651
4827.47531	0.03654
4825.54663	0.03661
4823.61796	0.03667
4821.68928	0.03673
4819.76061	0.03680
4817.83193	0.03687
4815.90325	0.03690
4813.97458	0.03694
4812.04590	0.03699
4810.11723	0.03705
4808.18855	0.03710
4806.25988	0.03717
4804.33120	0.03725
4802.40252	0.03732
4800.47385	0.03739
4798.54517	0.03744
4796.61650	0.03748
4794.68782	0.03753
4792.75915	0.03758
4790.83047	0.03762
4788.90179	0.03768
4786.97312	0.03775
4785.04444	0.03784
4783.11577	0.03792
4781.18709	0.03800
4779.25842	0.03806
4777.32974	0.03810
4775.40106	0.03812
4773.47239	0.03817
4771.54371	0.03823
4769.61504	0.03830
4767.68636	0.03836
4765.75769	0.03841
4763.82901	0.03846
4761.90033	0.03854
4759.97166	0.03863
4758.04298	0.03871
4756.11431	0.03880
4754.18563	0.03887
4752.25696	0.03892
4750.32828	0.03897
4748.39960	0.03903
4746.47093	0.03909
4744.54225	0.03913
4742.61358	0.03915
4740.68490	0.03918
4738.75623	0.03926
4736.82755	0.03935
4734.89887	0.03942
4732.97020	0.03949
4731.04152	0.03955
4729.11285	0.03961
4727.18417	0.03967
4725.25550	0.03973
4723.32682	0.03979
4721.39814	0.03987
4719.46947	0.03994
4717.54079	0.04000
4715.61212	0.04004
4713.68344	0.04010
4711.75477	0.04016
4709.82609	0.04021
4707.89741	0.04026
4705.96874	0.04034
4704.04006	0.04044
4702.11139	0.04051
4700.18271	0.04057
4698.25404	0.04062
4696.32536	0.04069
4694.39668	0.04075
4692.46801	0.04079
4690.53933	0.04084
4688.61066	0.04090
4686.68198	0.04097
4684.75331	0.04104
4682.82463	0.04110
4680.89595	0.04116
4678.96728	0.04123
4677.03860	0.04131
4675.10993	0.04137
4673.18125	0.04143
4671.25258	0.04151
4669.32390	0.04160
4667.39522	0.04167
4665.46655	0.04172
4663.53787	0.04181
4661.60920	0.04191
4659.68052	0.04199
4657.75185	0.04203
4655.82317	0.04207
4653.89449	0.04212
4651.96582	0.04217
4650.03714	0.04223
4648.10847	0.04231
4646.17979	0.04238
4644.25112	0.04243
4642.32244	0.04249
4640.39376	0.04256
4638.46509	0.04264
4636.53641	0.04273
4634.60774	0.04281
4632.67906	0.04288
4630.75039	0.04297
4628.82171	0.04304
4626.89303	0.04310
4624.96436	0.04315
4623.03568	0.04321
4621.10701	0.04328
4619.17833	0.04335
4617.24966	0.04343
4615.32098	0.04350
4613.39230	0.04356
4611.46363	0.04362
4609.53495	0.04370
4607.60628	0.04377
4605.67760	0.04385
4603.74893	0.04392
4601.82025	0.04399
4599.89157	0.04407
4597.96290	0.04414
4596.03422	0.04422
4594.10555	0.04428
4592.17687	0.04435
4590.24820	0.04441
4588.31952	0.04449
4586.39084	0.04456
4584.46217	0.04465
4582.53349	0.04472
4580.60482	0.04479
4578.67614	0.04488
4576.74747	0.04496
4574.81879	0.04503
4572.89011	0.04510
4570.96144	0.04518
4569.03276	0.04525
4567.10409	0.04531
4565.17541	0.04538
4563.24674	0.04544
4561.31806	0.04550
4559.38938	0.04559
4557.46071	0.04569
4555.53203	0.04578
4553.60336	0.04585
4551.67468	0.04591
4549.74601	0.04598
4547.81733	0.04605
4545.88865	0.04613
4543.95998	0.04621
4542.03130	0.04630
4540.10263	0.04638
4538.17395	0.04647
4536.24528	0.04655
4534.31660	0.04662
4532.38792	0.04668
4530.45925	0.04674
4528.53057	0.04682
4526.60190	0.04688
4524.67322	0.04693
4522.74455	0.04699
4520.81587	0.04709
4518.88719	0.04721
4516.95852	0.04730
4515.02984	0.04737
4513.10117	0.04744
4511.17249	0.04751
4509.24382	0.04757
4507.31514	0.04764
4505.38646	0.04774
4503.45779	0.04784
4501.52911	0.04793
4499.60044	0.04801
4497.67176	0.04810
4495.74309	0.04817
4493.81441	0.04825
4491.88573	0.04834
4489.95706	0.04841
4488.02838	0.04848
4486.09971	0.04856
4484.17103	0.04865
4482.24236	0.04871
4480.31368	0.04878
4478.38500	0.04887
4476.45633	0.04895
4474.52765	0.04905
4472.59898	0.04915
4470.67030	0.04923
4468.74163	0.04933
4466.81295	0.04942
4464.88427	0.04950
4462.95560	0.04958
4461.02692	0.04965
4459.09825	0.04973
4457.16957	0.04981
4455.24090	0.04991
4453.31222	0.05000
4451.38354	0.05008
4449.45487	0.05015
4447.52619	0.05022
4445.59752	0.05030
4443.66884	0.05039
4441.74017	0.05050
4439.81149	0.05061
4437.88281	0.05071
4435.95414	0.05078
4434.02546	0.05086
4432.09679	0.05097
4430.16811	0.05108
4428.23944	0.05118
4426.31076	0.05128
4424.38208	0.05137
4422.45341	0.05142
4420.52473	0.05147
4418.59606	0.05155
4416.66738	0.05164
4414.73871	0.05174
4412.81003	0.05184
4410.88135	0.05193
4408.95268	0.05201
4407.02400	0.05209
4405.09533	0.05218
4403.16665	0.05231
4401.23798	0.05243
4399.30930	0.05252
4397.38062	0.05258
4395.45195	0.05264
4393.52327	0.05273
4391.59460	0.05284
4389.66592	0.05297
4387.73725	0.05306
4385.80857	0.05313
4383.87989	0.05320
4381.95122	0.05330
4380.02254	0.05340
4378.09387	0.05347
4376.16519	0.05356
4374.23652	0.05369
4372.30784	0.05382
4370.37916	0.05390
4368.45049	0.05395
4366.52181	0.05402
4364.59314	0.05413
4362.66446	0.05426
4360.73579	0.05437
4358.80711	0.05446
4356.87843	0.05455
4354.94976	0.05462
4353.02108	0.05470
4351.09241	0.05480
4349.16373	0.05491
4347.23506	0.05503
4345.30638	0.05512
4343.37770	0.05520
4341.44903	0.05529
4339.52035	0.05539
4337.59168	0.05550
4335.66300	0.05562
4333.73433	0.05572
4331.80565	0.05581
4329.87697	0.05591
4327.94830	0.05601
4326.01962	0.05611
4324.09095	0.05621
4322.16227	0.05632
4320.23360	0.05643
4318.30492	0.05653
4316.37624	0.05662
4314.44757	0.05671
4312.51889	0.05680
4310.59022	0.05691
4308.66154	0.05705
4306.73287	0.05717
4304.80419	0.05726
4302.87551	0.05735
4300.94684	0.05745
4299.01816	0.05754
4297.08949	0.05763
4295.16081	0.05773
4293.23214	0.05785
4291.30346	0.05798
4289.37478	0.05811
4287.44611	0.05824
4285.51743	0.05836
4283.58876	0.05846
4281.66008	0.05857
4279.73141	0.05867
4277.80273	0.05876
4275.87405	0.05884
4273.94538	0.05894
4272.01670	0.05904
4270.08803	0.05917
4268.15935	0.05930
4266.23068	0.05942
4264.30200	0.05951
4262.37332	0.05959
4260.44465	0.05966
4258.51597	0.05976
4256.58730	0.05987
4254.65862	0.05998
4252.72995	0.06008
4250.80127	0.06018
4248.87259	0.06030
4246.94392	0.06044
4245.01524	0.06057
4243.08657	0.06066
4241.15789	0.06075
4239.22922	0.06086
4237.30054	0.06098
4235.37186	0.06109
4233.44319	0.06120
4231.51451	0.06133
4229.58584	0.06144
4227.65716	0.06154
4225.72849	0.06166
4223.79981	0.06180
4221.87113	0.06193
4219.94246	0.06204
4218.01378	0.06214
4216.08511	0.06223
4214.15643	0.06235
4212.22776	0.06247
4210.29908	0.06259
4208.37040	0.06269
4206.44173	0.06279
4204.51305	0.06289
4202.58438	0.06301
4200.65570	0.06313
4198.72703	0.06326
4196.79835	0.06339
4194.86968	0.06350
4192.94100	0.06361
4191.01232	0.06374
4189.08365	0.06388
4187.15497	0.06402
4185.22630	0.06414
4183.29762	0.06424
4181.36895	0.06434
4179.44027	0.06446
4177.51159	0.06458
4175.58292	0.06470
4173.65424	0.06480
4171.72557	0.06490
4169.79689	0.06502
4167.86822	0.06516
4165.93954	0.06530
4164.01086	0.06545
4162.08219	0.06559
4160.15351	0.06573
4158.22484	0.06586
4156.29616	0.06598
4154.36749	0.06611
4152.43881	0.06624
4150.51013	0.06634
4148.58146	0.06645
4146.65278	0.06656
4144.72411	0.06667
4142.79543	0.06682
4140.86676	0.06697
4138.93808	0.06709
4137.00940	0.06720
4135.08073	0.06731
4133.15205	0.06744
4131.22338	0.06757
4129.29470	0.06769
4127.36603	0.06779
4125.43735	0.06790
4123.50867	0.06804
4121.58000	0.06819
4119.65132	0.06832
4117.72265	0.06844
4115.79397	0.06856
4113.86530	0.06869
4111.93662	0.06882
4110.00794	0.06895
4108.07927	0.06907
4106.15059	0.06920
4104.22192	0.06933
4102.29324	0.06947
4100.36457	0.06960
4098.43589	0.06973
4096.50721	0.06985
4094.57854	0.06998
4092.64986	0.07011
4090.72119	0.07023
4088.79251	0.07036
4086.86384	0.07050
4084.93516	0.07064
4083.00648	0.07078
4081.07781	0.07093
4079.14913	0.07110
4077.22046	0.07125
4075.29178	0.07136
4073.36311	0.07145
4071.43443	0.07158
4069.50575	0.07173
4067.57708	0.07190
4065.64840	0.07205
4063.71973	0.07218
4061.79105	0.07230
4059.86238	0.07243
4057.93370	0.07259
4056.00502	0.07273
4054.07635	0.07286
4052.14767	0.07300
4050.21900	0.07317
4048.29032	0.07333
4046.36165	0.07346
4044.43297	0.07359
4042.50429	0.07371
4040.57562	0.07383
4038.64694	0.07395
4036.71827	0.07409
4034.78959	0.07423
4032.86092	0.07437
4030.93224	0.07451
4029.00356	0.07466
4027.07489	0.07481
4025.14621	0.07496
4023.21754	0.07508
4021.28886	0.07519
4019.36019	0.07531
4017.43151	0.07546
4015.50283	0.07562
4013.57416	0.07577
4011.64548	0.07590
4009.71681	0.07604
4007.78813	0.07620
4005.85946	0.07637
4003.93078	0.07654
4002.00210	0.07667
4000.07343	0.07680
3998.14475	0.07693
3996.21608	0.07708
3994.28740	0.07723
3992.35873	0.07739
3990.43005	0.07755
3988.50137	0.07770
3986.57270	0.07781
3984.64402	0.07793
3982.71535	0.07808
3980.78667	0.07826
3978.85800	0.07843
3976.92932	0.07857
3975.00064	0.07871
3973.07197	0.07885
3971.14329	0.07900
3969.21462	0.07915
3967.28594	0.07928
3965.35727	0.07941
3963.42859	0.07953
3961.49991	0.07968
3959.57124	0.07985
3957.64256	0.08003
3955.71389	0.08021
3953.78521	0.08035
3951.85654	0.08046
3949.92786	0.08056
3947.99918	0.08070
3946.07051	0.08086
3944.14183	0.08100
3942.21316	0.08114
3940.28448	0.08132
3938.35581	0.08152
3936.42713	0.08166
3934.49845	0.08174
3932.56978	0.08182
3930.64110	0.08200
3928.71243	0.08221
3926.78375	0.08236
3924.85508	0.08249
3922.92640	0.08265
3920.99772	0.08278
3919.06905	0.08287
3917.14037	0.08303
3915.21170	0.08328
3913.28302	0.08351
3911.35435	0.08368
3909.42567	0.08380
3907.49699	0.08384
3905.56832	0.08378
3903.63964	0.08378
3901.71097	0.08392
3899.78229	0.08418
3897.85362	0.08452
3895.92494	0.08483
3893.99626	0.08498
3892.06759	0.08506
3890.13891	0.08522
3888.21024	0.08535
3886.28156	0.08541
3884.35289	0.08557
3882.42421	0.08576
3880.49553	0.08591
3878.56686	0.08615
3876.63818	0.08638
3874.70951	0.08649
3872.78083	0.08654
3870.85216	0.08657
3868.92348	0.08675
3866.99480	0.08700
3865.06613	0.08717
3863.13745	0.08736
3861.20878	0.08764
3859.28010	0.08785
3857.35143	0.08777
3855.42275	0.08743
3853.49407	0.08737
3851.56540	0.08790
3849.63672	0.08856
3847.70805	0.08893
3845.77937	0.08905
3843.85070	0.08909
3841.92202	0.08914
3839.99334	0.08919
3838.06467	0.08929
3836.13599	0.08954
3834.20732	0.08982
3832.27864	0.09007
3830.34997	0.09032
3828.42129	0.09055
3826.49261	0.09072
3824.56394	0.09080
3822.63526	0.09074
3820.70659	0.09080
3818.77791	0.09105
3816.84924	0.09127
3814.92056	0.09157
3812.99188	0.09198
3811.06321	0.09221
3809.13453	0.09221
3807.20586	0.09221
3805.27718	0.09237
3803.34851	0.09248
3801.41983	0.09256
3799.49115	0.09283
3797.56248	0.09316
3795.63380	0.09346
3793.70513	0.09374
3791.77645	0.09395
3789.84778	0.09410
3787.91910	0.09425
3785.99042	0.09440
3784.06175	0.09457
3782.13307	0.09470
3780.20440	0.09481
3778.27572	0.09504
3776.34705	0.09535
3774.41837	0.09554
3772.48969	0.09557
3770.56102	0.09558
3768.63234	0.09573
3766.70367	0.09597
3764.77499	0.09622
3762.84632	0.09640
3760.91764	0.09648
3758.98896	0.09658
3757.06029	0.09678
3755.13161	0.09688
3753.20294	0.09676
3751.27426	0.09665
3749.34559	0.09683
3747.41691	0.09701
3745.48823	0.09698
3743.55956	0.09724
3741.63088	0.09786
3739.70221	0.09820
3737.77353	0.09813
3735.84486	0.09808
3733.91618	0.09833
3731.98750	0.09878
3730.05883	0.09921
3728.13015	0.09944
3726.20148	0.09955
3724.27280	0.09974
3722.34413	0.09998
3720.41545	0.10023
3718.48677	0.10047
3716.55810	0.10065
3714.62942	0.10067
3712.70075	0.10063
3710.77207	0.10077
3708.84340	0.10114
3706.91472	0.10153
3704.98604	0.10174
3703.05737	0.10182
3701.12869	0.10197
3699.20002	0.10225
3697.27134	0.10249
3695.34267	0.10262
3693.41399	0.10263
3691.48531	0.10255
3689.55664	0.10259
3687.62796	0.10293
3685.69929	0.10338
3683.77061	0.10369
3681.84194	0.10383
3679.91326	0.10383
3677.98458	0.10371
3676.05591	0.10365
3674.12723	0.10388
3672.19856	0.10417
3670.26988	0.10437
3668.34121	0.10472
3666.41253	0.10516
3664.48385	0.10545
3662.55518	0.10561
3660.62650	0.10571
3658.69783	0.10576
3656.76915	0.10583
3654.84048	0.10599
3652.91180	0.10596
3650.98312	0.10564
3649.05445	0.10546
3647.12577	0.10577
3645.19710	0.10637
3643.26842	0.10688
3641.33975	0.10721
3639.41107	0.10745
3637.48239	0.10760
3635.55372	0.10769
3633.62504	0.10773
3631.69637	0.10762
3629.76769	0.10748
3627.83902	0.10772
3625.91034	0.10823
3623.98166	0.10856
3622.05299	0.10858
3620.12431	0.10851
3618.19564	0.10859
3616.26696	0.10880
3614.33829	0.10894
3612.40961	0.10903
3610.48093	0.10911
3608.55226	0.10927
3606.62358	0.10957
3604.69491	0.10988
3602.76623	0.11004
3600.83756	0.11013
3598.90888	0.11026
3596.98020	0.11039
3595.05153	0.11054
3593.12285	0.11070
3591.19418	0.11077
3589.26550	0.11071
3587.33683	0.11077
3585.40815	0.11108
3583.47947	0.11140
3581.55080	0.11160
3579.62212	0.11179
3577.69345	0.11199
3575.76477	0.11213
3573.83610	0.11226
3571.90742	0.11235
3569.97874	0.11230
3568.05007	0.11224
3566.12139	0.11243
3564.19272	0.11280
3562.26404	0.11309
3560.33537	0.11326
3558.40669	0.11343
3556.47801	0.11359
3554.54934	0.11370
3552.62066	0.11381
3550.69199	0.11396
3548.76331	0.11406
3546.83464	0.11411
3544.90596	0.11424
3542.97728	0.11446
3541.04861	0.11467
3539.11993	0.11480
3537.19126	0.11490
3535.26258	0.11499
3533.33391	0.11510
3531.40523	0.11518
3529.47655	0.11524
3527.54788	0.11532
3525.61920	0.11539
3523.69053	0.11545
3521.76185	0.11554
3519.83318	0.11565
3517.90450	0.11573
3515.97582	0.11581
3514.04715	0.11590
3512.11847	0.11595
3510.18980	0.11599
3508.26112	0.11607
3506.33245	0.11615
3504.40377	0.11617
3502.47509	0.11620
3500.54642	0.11630
3498.61774	0.11642
3496.68907	0.11649
3494.76039	0.11656
3492.83172	0.11664
3490.90304	0.11668
3488.97436	0.11669
3487.04569	0.11673
3485.11701	0.11681
3483.18834	0.11688
3481.25966	0.11697
3479.33099	0.11711
3477.40231	0.11726
3475.47363	0.11742
3473.54496	0.11758
3471.61628	0.11774
3469.68761	0.11789
3467.75893	0.11804
3465.83026	0.11821
3463.90158	0.11842
3461.97290	0.11864
3460.04423	0.11886
3458.11555	0.11906
3456.18688	0.11926
3454.25820	0.11943
3452.32953	0.11961
3450.40085	0.11976
3448.47217	0.11988
3446.54350	0.12001
3444.61482	0.12020
3442.68615	0.12043
3440.75747	0.12069
3438.82880	0.12098
3436.90012	0.12132
3434.97144	0.12169
3433.04277	0.12204
3431.11409	0.12240
3429.18542	0.12278
3427.25674	0.12317
3425.32807	0.12354
3423.39939	0.12389
3421.47071	0.12422
3419.54204	0.12456
3417.61336	0.12490
3415.68469	0.12520
3413.75601	0.12548
3411.82734	0.12576
3409.89866	0.12606
3407.96998	0.12635
3406.04131	0.12659
3404.11263	0.12682
3402.18396	0.12706
3400.25528	0.12732
3398.32661	0.12759
3396.39793	0.12786
3394.46925	0.12812
3392.54058	0.12837
3390.61190	0.12864
3388.68323	0.12889
3386.75455	0.12915
3384.82588	0.12939
3382.89720	0.12964
3380.96852	0.12991
3379.03985	0.13021
3377.11117	0.13048
3375.18250	0.13072
3373.25382	0.13094
3371.32515	0.13114
3369.39647	0.13136
3367.46779	0.13160
3365.53912	0.13183
3363.61044	0.13205
3361.68177	0.13228
3359.75309	0.13253
3357.82442	0.13277
3355.89574	0.13301
3353.96706	0.13324
3352.03839	0.13347
3350.10971	0.13371
3348.18104	0.13395
3346.25236	0.13418
3344.32369	0.13442
3342.39501	0.13469
3340.46633	0.13493
3338.53766	0.13513
3336.60898	0.13534
3334.68031	0.13558
3332.75163	0.13583
3330.82296	0.13606
3328.89428	0.13627
3326.96560	0.13651
3325.03693	0.13676
3323.10825	0.13701
3321.17958	0.13728
3319.25090	0.13754
3317.32223	0.13780
3315.39355	0.13805
3313.46487	0.13830
3311.53620	0.13853
3309.60752	0.13875
3307.67885	0.13900
3305.75017	0.13928
3303.82150	0.13951
3301.89282	0.13972
3299.96414	0.13996
3298.03547	0.14022
3296.10679	0.14049
3294.17812	0.14075
3292.24944	0.14101
3290.32077	0.14128
3288.39209	0.14154
3286.46341	0.14179
3284.53474	0.14203
3282.60606	0.14228
3280.67739	0.14252
3278.74871	0.14277
3276.82004	0.14301
3274.89136	0.14327
3272.96268	0.14359
3271.03401	0.14389
3269.10533	0.14416
3267.17666	0.14441
3265.24798	0.14465
3263.31931	0.14487
3261.39063	0.14512
3259.46195	0.14538
3257.53328	0.14563
3255.60460	0.14589
3253.67593	0.14615
3251.74725	0.14642
3249.81858	0.14667
3247.88990	0.14689
3245.96122	0.14711
3244.03255	0.14737
3242.10387	0.14766
3240.17520	0.14795
3238.24652	0.14824
3236.31785	0.14852
3234.38917	0.14879
3232.46049	0.14904
3230.53182	0.14927
3228.60314	0.14951
3226.67447	0.14979
3224.74579	0.15006
3222.81712	0.15032
3220.88844	0.15057
3218.95976	0.15082
3217.03109	0.15107
3215.10241	0.15130
3213.17374	0.15152
3211.24506	0.15176
3209.31639	0.15205
3207.38771	0.15236
3205.45903	0.15264
3203.53036	0.15289
3201.60168	0.15312
3199.67301	0.15337
3197.74433	0.15366
3195.81566	0.15399
3193.88698	0.15431
3191.95830	0.15460
3190.02963	0.15488
3188.10095	0.15517
3186.17228	0.15545
3184.24360	0.15572
3182.31493	0.15595
3180.38625	0.15619
3178.45757	0.15648
3176.52890	0.15679
3174.60022	0.15706
3172.67155	0.15731
3170.74287	0.15759
3168.81420	0.15787
3166.88552	0.15814
3164.95684	0.15840
3163.02817	0.15866
3161.09949	0.15890
3159.17082	0.15915
3157.24214	0.15942
3155.31347	0.15970
3153.38479	0.16000
3151.45611	0.16031
3149.52744	0.16058
3147.59876	0.16083
3145.67009	0.16109
3143.74141	0.16136
3141.81274	0.16163
3139.88406	0.16188
3137.95538	0.16216
3136.02671	0.16244
3134.09803	0.16268
3132.16936	0.16294
3130.24068	0.16321
3128.31201	0.16346
3126.38333	0.16371
3124.45465	0.16400
3122.52598	0.16430
3120.59730	0.16456
3118.66863	0.16478
3116.73995	0.16501
3114.81128	0.16530
3112.88260	0.16562
3110.95392	0.16591
3109.02525	0.16618
3107.09657	0.16645
3105.16790	0.16672
3103.23922	0.16699
3101.31055	0.16725
3099.38187	0.16750
3097.45319	0.16775
3095.52452	0.16803
3093.59584	0.16831
3091.66717	0.16859
3089.73849	0.16884
3087.80982	0.16909
3085.88114	0.16937
3083.95246	0.16964
3082.02379	0.16991
3080.09511	0.17019
3078.16644	0.17047
3076.23776	0.17077
3074.30909	0.17105
3072.38041	0.17128
3070.45173	0.17153
3068.52306	0.17179
3066.59438	0.17203
3064.66571	0.17227
3062.73703	0.17254
3060.80836	0.17283
3058.87968	0.17311
3056.95100	0.17336
3055.02233	0.17363
3053.09365	0.17394
3051.16498	0.17423
3049.23630	0.17449
3047.30763	0.17473
3045.37895	0.17499
3043.45027	0.17526
3041.52160	0.17550
3039.59292	0.17571
3037.66425	0.17596
3035.73557	0.17624
3033.80690	0.17651
3031.87822	0.17679
3029.94954	0.17709
3028.02087	0.17740
3026.09219	0.17768
3024.16352	0.17794
3022.23484	0.17821
3020.30617	0.17848
3018.37749	0.17873
3016.44881	0.17897
3014.52014	0.17924
3012.59146	0.17951
3010.66279	0.17977
3008.73411	0.18001
3006.80544	0.18025
3004.87676	0.18052
3002.94808	0.18081
3001.01941	0.18110
2999.09073	0.18137
2997.16206	0.18162
2995.23338	0.18186
2993.30471	0.18211
2991.37603	0.18236
2989.44735	0.18259
2987.51868	0.18280
2985.59000	0.18301
2983.66133	0.18318
2981.73265	0.18332
2979.80398	0.18343
2977.87530	0.18353
2975.94662	0.18363
2974.01795	0.18370
2972.08927	0.18372
2970.16060	0.18368
2968.23192	0.18364
2966.30325	0.18369
2964.37457	0.18381
2962.44589	0.18399
2960.51722	0.18422
2958.58854	0.18449
2956.65987	0.18481
2954.73119	0.18518
2952.80252	0.18557
2950.87384	0.18591
2948.94516	0.18617
2947.01649	0.18638
2945.08781	0.18656
2943.15914	0.18670
2941.23046	0.18680
2939.30179	0.18687
2937.37311	0.18688
2935.44443	0.18686
2933.51576	0.18683
2931.58708	0.18678
2929.65841	0.18670
2927.72973	0.18664
2925.80106	0.18663
2923.87238	0.18665
2921.94370	0.18671
2920.01503	0.18685
2918.08635	0.18715
2916.15768	0.18770
2914.22900	0.18850
2912.30033	0.18942
2910.37165	0.19024
2908.44297	0.19093
2906.51430	0.19152
2904.58562	0.19203
2902.65695	0.19244
2900.72827	0.19281
2898.79960	0.19318
2896.87092	0.19358
2894.94224	0.19398
2893.01357	0.19438
2891.08489	0.19473
2889.15622	0.19504
2887.22754	0.19536
2885.29887	0.19570
2883.37019	0.19603
2881.44151	0.19630
2879.51284	0.19655
2877.58416	0.19681
2875.65549	0.19708
2873.72681	0.19734
2871.79814	0.19759
2869.86946	0.19782
2867.94078	0.19806
2866.01211	0.19829
2864.08343	0.19849
2862.15476	0.19862
2860.22608	0.19869
2858.29741	0.19871
2856.36873	0.19870
2854.44005	0.19864
2852.51138	0.19862
2850.58270	0.19879
2848.65403	0.19934
2846.72535	0.20022
2844.79668	0.20114
2842.86800	0.20191
2840.93932	0.20255
2839.01065	0.20310
2837.08197	0.20354
2835.15330	0.20391
2833.22462	0.20427
2831.29595	0.20464
2829.36727	0.20497
2827.43859	0.20525
2825.50992	0.20555
2823.58124	0.20590
2821.65257	0.20623
2819.72389	0.20653
2817.79522	0.20683
2815.86654	0.20717
2813.93786	0.20748
2812.00919	0.20775
2810.08051	0.20801
2808.15184	0.20830
2806.22316	0.20861
2804.29449	0.20894
2802.36581	0.20927
2800.43713	0.20956
2798.50846	0.20981
2796.57978	0.21009
2794.65111	0.21041
2792.72243	0.21073
2790.79376	0.21103
2788.86508	0.21131
2786.93640	0.21160
2785.00773	0.21189
2783.07905	0.21218
2781.15038	0.21246
2779.22170	0.21275
2777.29303	0.21307
2775.36435	0.21341
2773.43567	0.21372
2771.50700	0.21398
2769.57832	0.21422
2767.64965	0.21448
2765.72097	0.21476
2763.79230	0.21506
2761.86362	0.21536
2759.93494	0.21564
2758.00627	0.21592
2756.07759	0.21622
2754.14892	0.21652
2752.22024	0.21679
2750.29157	0.21705
2748.36289	0.21733
2746.43421	0.21763
2744.50554	0.21793
2742.57686	0.21821
2740.64819	0.21849
2738.71951	0.21877
2736.79084	0.21902
2734.86216	0.21929
2732.93348	0.21960
2731.00481	0.21992
2729.07613	0.22019
2727.14746	0.22043
2725.21878	0.22069
2723.29011	0.22096
2721.36143	0.22123
2719.43275	0.22153
2717.50408	0.22183
2715.57540	0.22211
2713.64673	0.22238
2711.71805	0.22268
2709.78938	0.22296
2707.86070	0.22323
2705.93202	0.22349
2704.00335	0.22373
2702.07467	0.22400
2700.14600	0.22427
2698.21732	0.22455
2696.28865	0.22482
2694.35997	0.22511
2692.43129	0.22540
2690.50262	0.22567
2688.57394	0.22595
2686.64527	0.22623
2684.71659	0.22651
2682.78792	0.22675
2680.85924	0.22702
2678.93056	0.22734
2677.00189	0.22767
2675.07321	0.22795
2673.14454	0.22821
2671.21586	0.22847
2669.28719	0.22874
2667.35851	0.22902
2665.42983	0.22933
2663.50116	0.22965
2661.57248	0.22993
2659.64381	0.23017
2657.71513	0.23041
2655.78646	0.23068
2653.85778	0.23098
2651.92910	0.23132
2650.00043	0.23164
2648.07175	0.23191
2646.14308	0.23217
2644.21440	0.23246
2642.28573	0.23276
2640.35705	0.23306
2638.42837	0.23336
2636.49970	0.23368
2634.57102	0.23398
2632.64235	0.23427
2630.71367	0.23455
2628.78500	0.23484
2626.85632	0.23514
2624.92764	0.23547
2622.99897	0.23581
2621.07029	0.23610
2619.14162	0.23634
2617.21294	0.23661
2615.28427	0.23691
2613.35559	0.23720
2611.42691	0.23752
2609.49824	0.23786
2607.56956	0.23818
2605.64089	0.23848
2603.71221	0.23877
2601.78354	0.23902
2599.85486	0.23926
2597.92618	0.23957
2595.99751	0.23991
2594.06883	0.24024
2592.14016	0.24056
2590.21148	0.24087
2588.28281	0.24117
2586.35413	0.24148
2584.42545	0.24179
2582.49678	0.24208
2580.56810	0.24236
2578.63943	0.24264
2576.71075	0.24291
2574.78208	0.24317
2572.85340	0.24346
2570.92472	0.24378
2568.99605	0.24409
2567.06737	0.24437
2565.13870	0.24463
2563.21002	0.24489
2561.28135	0.24515
2559.35267	0.24544
2557.42399	0.24576
2555.49532	0.24607
2553.56664	0.24634
2551.63797	0.24663
2549.70929	0.24695
2547.78062	0.24727
2545.85194	0.24756
2543.92326	0.24783
2541.99459	0.24810
2540.06591	0.24838
2538.13724	0.24866
2536.20856	0.24893
2534.27989	0.24920
2532.35121	0.24946
2530.42253	0.24975
2528.49386	0.25008
2526.56518	0.25041
2524.63651	0.25073
2522.70783	0.25104
2520.77916	0.25134
2518.85048	0.25163
2516.92181	0.25193
2514.99313	0.25222
2513.06445	0.25251
2511.13578	0.25285
2509.20710	0.25318
2507.27843	0.25349
2505.34975	0.25378
2503.42108	0.25410
2501.49240	0.25444
2499.56372	0.25475
2497.63505	0.25504
2495.70637	0.25535
2493.77770	0.25568
2491.84902	0.25603
2489.92035	0.25637
2487.99167	0.25670
2486.06299	0.25701
2484.13432	0.25733
2482.20564	0.25763
2480.27697	0.25795
2478.34829	0.25826
2476.41962	0.25857
2474.49094	0.25890
2472.56226	0.25924
2470.63359	0.25952
2468.70491	0.25978
2466.77624	0.26006
2464.84756	0.26039
2462.91889	0.26074
2460.99021	0.26108
2459.06153	0.26138
2457.13286	0.26167
2455.20418	0.26198
2453.27551	0.26228
2451.34683	0.26255
2449.41816	0.26285
2447.48948	0.26320
2445.56080	0.26355
2443.63213	0.26387
2441.70345	0.26421
2439.77478	0.26455
2437.84610	0.26488
2435.91743	0.26517
2433.98875	0.26543
2432.06007	0.26570
2430.13140	0.26600
2428.20272	0.26631
2426.27405	0.26661
2424.34537	0.26691
2422.41670	0.26726
2420.48802	0.26761
2418.55934	0.26790
2416.63067	0.26816
2414.70199	0.26844
2412.77332	0.26875
2410.84464	0.26908
2408.91597	0.26944
2406.98729	0.26977
2405.05861	0.27005
2403.12994	0.27033
2401.20126	0.27064
2399.27259	0.27096
2397.34391	0.27122
2395.41524	0.27147
2393.48656	0.27175
2391.55788	0.27207
2389.62921	0.27239
2387.70053	0.27270
2385.77186	0.27297
2383.84318	0.27322
2381.91451	0.27348
2379.98583	0.27369
2378.05715	0.27380
2376.12848	0.27386
2374.19980	0.27395
2372.27113	0.27404
2370.34245	0.27411
2368.41378	0.27421
2366.48510	0.27437
2364.55642	0.27458
2362.62775	0.27480
2360.69907	0.27506
2358.77040	0.27540
2356.84172	0.27583
2354.91305	0.27634
2352.98437	0.27697
2351.05569	0.27763
2349.12702	0.27808
2347.19834	0.27823
2345.26967	0.27828
2343.34099	0.27839
2341.41232	0.27859
2339.48364	0.27885
2337.55496	0.27914
2335.62629	0.27946
2333.69761	0.27980
2331.76894	0.28014
2329.84026	0.28048
2327.91159	0.28083
2325.98291	0.28123
2324.05423	0.28167
2322.12556	0.28212
2320.19688	0.28255
2318.26821	0.28294
2316.33953	0.28332
2314.41086	0.28371
2312.48218	0.28412
2310.55350	0.28451
2308.62483	0.28487
2306.69615	0.28521
2304.76748	0.28559
2302.83880	0.28597
2300.91013	0.28633
2298.98145	0.28668
2297.05277	0.28702
2295.12410	0.28733
2293.19542	0.28762
2291.26675	0.28792
2289.33807	0.28824
2287.40940	0.28856
2285.48072	0.28889
2283.55204	0.28922
2281.62337	0.28952
2279.69469	0.28980
2277.76602	0.29009
2275.83734	0.29038
2273.90867	0.29069
2271.97999	0.29102
2270.05131	0.29133
2268.12264	0.29162
2266.19396	0.29191
2264.26529	0.29221
2262.33661	0.29252
2260.40794	0.29283
2258.47926	0.29314
2256.55058	0.29345
2254.62191	0.29379
2252.69323	0.29414
2250.76456	0.29447
2248.83588	0.29475
2246.90721	0.29502
2244.97853	0.29533
2243.04985	0.29565
2241.12118	0.29596
2239.19250	0.29628
2237.26383	0.29658
2235.33515	0.29685
2233.40648	0.29716
2231.47780	0.29750
2229.54912	0.29783
2227.62045	0.29815
2225.69177	0.29845
2223.76310	0.29873
2221.83442	0.29905
2219.90575	0.29940
2217.97707	0.29973
2216.04839	0.30000
2214.11972	0.30026
2212.19104	0.30055
2210.26237	0.30085
2208.33369	0.30117
2206.40502	0.30149
2204.47634	0.30179
2202.54766	0.30208
2200.61899	0.30239
2198.69031	0.30267
2196.76164	0.30294
2194.83296	0.30323
2192.90429	0.30350
2190.97561	0.30377
2189.04693	0.30407
2187.11826	0.30443
2185.18958	0.30478
2183.26091	0.30508
2181.33223	0.30535
2179.40356	0.30562
2177.47488	0.30589
2175.54620	0.30619
2173.61753	0.30652
2171.68885	0.30686
2169.76018	0.30720
2167.83150	0.30753
2165.90283	0.30785
2163.97415	0.30816
2162.04547	0.30844
2160.11680	0.30873
2158.18812	0.30905
2156.25945	0.30937
2154.33077	0.30969
2152.40210	0.31002
2150.47342	0.31038
2148.54474	0.31072
2146.61607	0.31104
2144.68739	0.31136
2142.75872	0.31168
2140.83004	0.31198
2138.90137	0.31227
2136.97269	0.31255
2135.04401	0.31281
2133.11534	0.31308
2131.18666	0.31339
2129.25799	0.31374
2127.32931	0.31408
2125.40064	0.31438
2123.47196	0.31467
2121.54328	0.31496
2119.61461	0.31528
2117.68593	0.31558
2115.75726	0.31587
2113.82858	0.31619
2111.89991	0.31657
2109.97123	0.31694
2108.04255	0.31727
2106.11388	0.31755
2104.18520	0.31784
2102.25653	0.31814
2100.32785	0.31843
2098.39918	0.31871
2096.47050	0.31901
2094.54182	0.31933
2092.61315	0.31961
2090.68447	0.31988
2088.75580	0.32021
2086.82712	0.32058
2084.89845	0.32094
2082.96977	0.32129
2081.04109	0.32159
2079.11242	0.32189
2077.18374	0.32220
2075.25507	0.32249
2073.32639	0.32277
2071.39772	0.32307
2069.46904	0.32340
2067.54036	0.32373
2065.61169	0.32406
2063.68301	0.32441
2061.75434	0.32477
2059.82566	0.32507
2057.89699	0.32533
2055.96831	0.32559
2054.03963	0.32586
2052.11096	0.32617
2050.18228	0.32650
2048.25361	0.32684
2046.32493	0.32718
2044.39626	0.32749
2042.46758	0.32777
2040.53890	0.32808
2038.61023	0.32843
2036.68155	0.32878
2034.75288	0.32909
2032.82420	0.32938
2030.89553	0.32967
2028.96685	0.32999
2027.03817	0.33033
2025.10950	0.33069
2023.18082	0.33099
2021.25215	0.33123
2019.32347	0.33147
2017.39480	0.33177
2015.46612	0.33216
2013.53744	0.33253
2011.60877	0.33287
2009.68009	0.33323
2007.75142	0.33357
2005.82274	0.33386
2003.89407	0.33413
2001.96539	0.33441
2000.03671	0.33468
1998.10804	0.33496
1996.17936	0.33522
1994.25069	0.33541
1992.32201	0.33562
1990.39334	0.33597
1988.46466	0.33637
1986.53598	0.33674
1984.60731	0.33705
1982.67863	0.33732
1980.74996	0.33756
1978.82128	0.33778
1976.89261	0.33804
1974.96393	0.33832
1973.03525	0.33859
1971.10658	0.33884
1969.17790	0.33908
1967.24923	0.33935
1965.32055	0.33969
1963.39188	0.34006
1961.46320	0.34038
1959.53452	0.34067
1957.60585	0.34093
1955.67717	0.34121
1953.74850	0.34151
1951.81982	0.34180
1949.89115	0.34205
1947.96247	0.34228
1946.03379	0.34250
1944.10512	0.34273
1942.17644	0.34308
1940.24777	0.34355
1938.31909	0.34397
1936.39042	0.34428
1934.46174	0.34460
1932.53306	0.34490
1930.60439	0.34514
1928.67571	0.34543
1926.74704	0.34573
1924.81836	0.34593
1922.88969	0.34610
1920.96101	0.34630
1919.03233	0.34651
1917.10366	0.34692
1915.17498	0.34752
1913.24631	0.34798
1911.31763	0.34822
1909.38896	0.34843
1907.46028	0.34872
1905.53160	0.34905
1903.60293	0.34937
1901.67425	0.34970
1899.74558	0.35001
1897.81690	0.35025
1895.88823	0.35046
1893.95955	0.35071
1892.03087	0.35090
1890.10220	0.35108
1888.17352	0.35145
1886.24485	0.35193
1884.31617	0.35232
1882.38750	0.35264
1880.45882	0.35295
1878.53014	0.35327
1876.60147	0.35359
1874.67279	0.35386
1872.74412	0.35395
1870.81544	0.35382
1868.88677	0.35384
1866.95809	0.35434
1865.02941	0.35505
1863.10074	0.35557
1861.17206	0.35590
1859.24339	0.35623
1857.31471	0.35658
1855.38604	0.35694
1853.45736	0.35729
1851.52868	0.35756
1849.60001	0.35773
1847.67133	0.35774
1845.74266	0.35756
1843.81398	0.35771
1841.88531	0.35845
1839.95663	0.35923
1838.02795	0.35969
1836.09928	0.36000
1834.17060	0.36022
1832.24193	0.36024
1830.31325	0.36025
1828.38458	0.36052
1826.45590	0.36091
1824.52722	0.36135
1822.59855	0.36191
1820.66987	0.36238
1818.74120	0.36269
1816.81252	0.36298
1814.88385	0.36323
1812.95517	0.36336
1811.02649	0.36348
1809.09782	0.36377
1807.16914	0.36415
1805.24047	0.36439
1803.31179	0.36442
1801.38312	0.36441
1799.45444	0.36468
1797.52576	0.36511
1795.59709	0.36530
1793.66841	0.36518
1791.73974	0.36531
1789.81106	0.36593
1787.88239	0.36647
1785.95371	0.36662
1784.02503	0.36674
1782.09636	0.36696
1780.16768	0.36727
1778.23901	0.36767
1776.31033	0.36782
1774.38166	0.36754
1772.45298	0.36733
1770.52430	0.36756
1768.59563	0.36805
1766.66695	0.36865
1764.73828	0.36907
1762.80960	0.36913
1760.88093	0.36924
1758.95225	0.36943
1757.02357	0.36954
1755.09490	0.36964
1753.16622	0.36939
1751.23755	0.36889
1749.30887	0.36887
1747.38020	0.36928
1745.45152	0.36959
1743.52284	0.36967
1741.59417	0.36966
1739.66549	0.36971
1737.73682	0.36969
1735.80814	0.36922
1733.87947	0.36903
1731.95079	0.36984
1730.02211	0.37097
1728.09344	0.37178
1726.16476	0.37228
1724.23609	0.37256
1722.30741	0.37266
1720.37874	0.37223
1718.45006	0.37162
1716.52138	0.37174
1714.59271	0.37258
1712.66403	0.37345
1710.73536	0.37393
1708.80668	0.37394
1706.87801	0.37370
1704.94933	0.37351
1703.02065	0.37301
1701.09198	0.37227
1699.16330	0.37226
1697.23463	0.37280
1695.30595	0.37346
1693.37728	0.37430
1691.44860	0.37472
1689.51992	0.37456
1687.59125	0.37411
1685.66257	0.37336
1683.73390	0.37317
1681.80522	0.37401
1679.87655	0.37487
1677.94787	0.37493
1676.01919	0.37458
1674.09052	0.37453
1672.16184	0.37451
1670.23317	0.37438
1668.30449	0.37483
1666.37582	0.37562
1664.44714	0.37585
1662.51846	0.37584
1660.58979	0.37616
1658.66111	0.37641
1656.73244	0.37574
1654.80376	0.37427
1652.87509	0.37371
1650.94641	0.37466
1649.01773	0.37535
1647.08906	0.37539
1645.16038	0.37594
1643.23171	0.37681
1641.30303	0.37720
1639.37436	0.37693
1637.44568	0.37629
1635.51700	0.37615
1633.58833	0.37698
1631.65965	0.37780
1629.73098	0.37785
1627.80230	0.37752
1625.87363	0.37710
1623.94495	0.37648
1622.01627	0.37600
1620.08760	0.37588
1618.15892	0.37614
1616.23025	0.37713
1614.30157	0.37868
1612.37290	0.37988
1610.44422	0.38046
1608.51554	0.38087
1606.58687	0.38138
1604.65819	0.38187
1602.72952	0.38223
1600.80084	0.38261
1598.87217	0.38301
1596.94349	0.38326
1595.01481	0.38348
1593.08614	0.38384
1591.15746	0.38425
1589.22879	0.38461
1587.30011	0.38491
1585.37144	0.38520
1583.44276	0.38549
1581.51408	0.38576
1579.58541	0.38575
1577.65673	0.38542
1575.72806	0.38549
1573.79938	0.38613
1571.87071	0.38639
1569.94203	0.38630
1568.01335	0.38664
1566.08468	0.38722
1564.15600	0.38750
1562.22733	0.38695
1560.29865	0.38572
1558.36998	0.38542
1556.44130	0.38664
1554.51262	0.38801
1552.58395	0.38874
1550.65527	0.38906
1548.72660	0.38934
1546.79792	0.38939
1544.86925	0.38887
1542.94057	0.38805
1541.01189	0.38762
1539.08322	0.38825
1537.15454	0.38949
1535.22587	0.39012
1533.29719	0.39031
1531.36852	0.39078
1529.43984	0.39111
1527.51116	0.39098
1525.58249	0.39072
1523.65381	0.39020
1521.72514	0.38969
1519.79646	0.38992
1517.86779	0.39059
1515.93911	0.39120
1514.01043	0.39172
1512.08176	0.39183
1510.15308	0.39134
1508.22441	0.39069
1506.29573	0.39098
1504.36706	0.39238
1502.43838	0.39344
1500.50970	0.39345
1498.58103	0.39313
1496.65235	0.39329
1494.72368	0.39381
1492.79500	0.39391
1490.86633	0.39347
1488.93765	0.39332
1487.00897	0.39382
1485.08030	0.39446
1483.15162	0.39479
1481.22295	0.39483
1479.29427	0.39466
1477.36560	0.39412
1475.43692	0.39330
1473.50824	0.39269
1471.57957	0.39274
1469.65089	0.39317
1467.72222	0.39322
1465.79354	0.39298
1463.86487	0.39308
1461.93619	0.39321
1460.00751	0.39251
1458.07884	0.39147
1456.15016	0.39163
1454.22149	0.39292
1452.29281	0.39392
1450.36414	0.39415
1448.43546	0.39415
1446.50678	0.39441
1444.57811	0.39487
1442.64943	0.39518
1440.72076	0.39509
1438.79208	0.39440
1436.86341	0.39383
1434.93473	0.39422
1433.00605	0.39489
1431.07738	0.39506
1429.14870	0.39507
1427.22003	0.39511
1425.29135	0.39496
1423.36268	0.39465
1421.43400	0.39407
1419.50532	0.39345
1417.57665	0.39356
1415.64797	0.39420
1413.71930	0.39457
1411.79062	0.39461
1409.86195	0.39456
1407.93327	0.39439
1406.00459	0.39412
1404.07592	0.39404
1402.14724	0.39407
1400.21857	0.39382
1398.28989	0.39344
1396.36122	0.39318
1394.43254	0.39321
1392.50386	0.39354
1390.57519	0.39350
1388.64651	0.39276
1386.71784	0.39206
1384.78916	0.39194
1382.86049	0.39218
1380.93181	0.39239
1379.00313	0.39238
1377.07446	0.39219
1375.14578	0.39196
1373.21711	0.39191
1371.28843	0.39205
1369.35976	0.39214
1367.43108	0.39213
1365.50240	0.39189
1363.57373	0.39151
1361.64505	0.39143
1359.71638	0.39169
1357.78770	0.39186
1355.85903	0.39187
1353.93035	0.39194
1352.00167	0.39213
1350.07300	0.39233
1348.14432	0.39250
1346.21565	0.39267
1344.28697	0.39274
1342.35830	0.39255
1340.42962	0.39221
1338.50094	0.39211
1336.57227	0.39228
1334.64359	0.39246
1332.71492	0.39251
1330.78624	0.39244
1328.85757	0.39231
1326.92889	0.39219
1325.00021	0.39212
1323.07154	0.39201
1321.14286	0.39181
1319.21419	0.39158
1317.28551	0.39142
1315.35684	0.39125
1313.42816	0.39103
1311.49948	0.39084
1309.57081	0.39065
1307.64213	0.39038
1305.71346	0.39004
1303.78478	0.38965
1301.85611	0.38927
1299.92743	0.38893
1297.99875	0.38854
1296.07008	0.38811
1294.14140	0.38774
1292.21273	0.38735
1290.28405	0.38688
1288.35538	0.38641
1286.42670	0.38594
1284.49802	0.38539
1282.56935	0.38474
1280.64067	0.38406
1278.71200	0.38336
1276.78332	0.38258
1274.85465	0.38163
1272.92597	0.38051
1270.99729	0.37915
1269.06862	0.37743
1267.13994	0.37546
1265.21127	0.37364
1263.28259	0.37238
1261.35392	0.37180
1259.42524	0.37172
1257.49656	0.37190
1255.56789	0.37210
1253.63921	0.37212
1251.71054	0.37182
1249.78186	0.37124
1247.85319	0.37053
1245.92451	0.36983
1243.99583	0.36910
1242.06716	0.36829
1240.13848	0.36740
1238.20981	0.36644
1236.28113	0.36542
1234.35246	0.36436
1232.42378	0.36327
1230.49510	0.36218
1228.56643	0.36112
1226.63775	0.36012
1224.70908	0.35913
1222.78040	0.35812
1220.85173	0.35713
1218.92305	0.35622
1216.99437	0.35528
1215.06570	0.35428
1213.13702	0.35334
1211.20835	0.35246
1209.27967	0.35153
1207.35100	0.35053
1205.42232	0.34952
1203.49364	0.34858
1201.56497	0.34771
1199.63629	0.34685
1197.70762	0.34599
1195.77894	0.34512
1193.85027	0.34419
1191.92159	0.34316
1189.99291	0.34205
1188.06424	0.34088
1186.13556	0.33960
1184.20689	0.33826
1182.27821	0.33693
1180.34954	0.33560
1178.42086	0.33424
1176.49218	0.33286
1174.56351	0.33142
1172.63483	0.32993
1170.70616	0.32843
1168.77748	0.32691
1166.84881	0.32546
1164.92013	0.32410
1162.99145	0.32273
1161.06278	0.32135
1159.13410	0.31999
1157.20543	0.31867
1155.27675	0.31740
1153.34808	0.31615
1151.41940	0.31492
1149.49072	0.31374
1147.56205	0.31257
1145.63337	0.31140
1143.70470	0.31024
1141.77602	0.30907
1139.84735	0.30788
1137.91867	0.30664
1135.98999	0.30537
1134.06132	0.30409
1132.13264	0.30277
1130.20397	0.30138
1128.27529	0.29991
1126.34662	0.29842
1124.41794	0.29695
1122.48926	0.29548
1120.56059	0.29395
1118.63191	0.29236
1116.70324	0.29076
1114.77456	0.28914
1112.84589	0.28748
1110.91721	0.28583
1108.98853	0.28426
1107.05986	0.28276
1105.13118	0.28129
1103.20251	0.27985
1101.27383	0.27846
1099.34516	0.27709
1097.41648	0.27574
1095.48780	0.27442
1093.55913	0.27314
1091.63045	0.27194
1089.70178	0.27086
1087.77310	0.26979
1085.84443	0.26864
1083.91575	0.26748
1081.98707	0.26641
1080.05840	0.26539
1078.12972	0.26443
1076.20105	0.26358
1074.27237	0.26281
1072.34370	0.26219
1070.41502	0.26177
1068.48634	0.26150
1066.55767	0.26133
1064.62899	0.26127
1062.70032	0.26134
1060.77164	0.26149
1058.84297	0.26165
1056.91429	0.26187
1054.98561	0.26219
1053.05694	0.26263
1051.12826	0.26311
1049.19959	0.26361
1047.27091	0.26421
1045.34224	0.26491
1043.41356	0.26562
1041.48488	0.26629
1039.55621	0.26699
1037.62753	0.26781
1035.69886	0.26868
1033.77018	0.26952
1031.84151	0.27034
1029.91283	0.27117
1027.98415	0.27197
1026.05548	0.27273
1024.12680	0.27349
1022.19813	0.27435
1020.26945	0.27530
1018.34078	0.27633
1016.41210	0.27742
1014.48342	0.27863
1012.55475	0.27998
1010.62607	0.28142
1008.69740	0.28286
1006.76872	0.28429
1004.84005	0.28563
1002.91137	0.28677
1000.98269	0.28777
999.05402	0.28868
997.12534	0.28949
995.19667	0.29022
993.26799	0.29090
991.33932	0.29154
989.41064	0.29215
987.48196	0.29277
985.55329	0.29336
983.62461	0.29387
981.69594	0.29433
979.76726	0.29469
977.83859	0.29488
975.90991	0.29498
973.98123	0.29502
972.05256	0.29498
970.12388	0.29490
968.19521	0.29480
966.26653	0.29467
964.33786	0.29447
962.40918	0.29418
960.48050	0.29385
958.55183	0.29350
956.62315	0.29318
954.69448	0.29288
952.76580	0.29250
950.83713	0.29200
948.90845	0.29141
946.97977	0.29081
945.05110	0.29026
943.12242	0.28975
941.19375	0.28918
939.26507	0.28854
937.33640	0.28792
935.40772	0.28730
933.47904	0.28656
931.55037	0.28579
929.62169	0.28507
927.69302	0.28443
925.76434	0.28382
923.83567	0.28323
921.90699	0.28258
919.97831	0.28187
918.04964	0.28117
916.12096	0.28045
914.19229	0.27964
912.26361	0.27882
910.33494	0.27803
908.40626	0.27720
906.47758	0.27633
904.54891	0.27547
902.62023	0.27457
900.69156	0.27362
898.76288	0.27272
896.83421	0.27182
894.90553	0.27089
892.97685	0.26997
891.04818	0.26908
889.11950	0.26812
887.19083	0.26714
885.26215	0.26624
883.33348	0.26543
881.40480	0.26465
879.47612	0.26383
877.54745	0.26296
875.61877	0.26210
873.69010	0.26132
871.76142	0.26063
869.83275	0.25990
867.90407	0.25906
865.97539	0.25820
864.04672	0.25738
862.11804	0.25654
860.18937	0.25562
858.26069	0.25463
856.33202	0.25368
854.40334	0.25279
852.47466	0.25186
850.54599	0.25091
848.61731	0.25000
846.68864	0.24906
844.75996	0.24809
842.83129	0.24715
840.90261	0.24623
838.97394	0.24527
837.04526	0.24429
835.11658	0.24336
833.18791	0.24240
831.25923	0.24133
829.33056	0.24017
827.40188	0.23896
825.47321	0.23775
823.54453	0.23658
821.61585	0.23552
819.68718	0.23454
817.75850	0.23361
815.82983	0.23266
813.90115	0.23161
811.97248	0.23050
810.04380	0.22941
808.11512	0.22840
806.18645	0.22747
804.25777	0.22666
802.32910	0.22598
800.40042	0.22533
798.47175	0.22467
796.54307	0.22415
794.61439	0.22385
792.68572	0.22365
790.75704	0.22341
788.82837	0.22305
786.89969	0.22257
784.97102	0.22202
783.04234	0.22151
781.11366	0.22112
779.18499	0.22076
777.25631	0.22035
775.32764	0.21988
773.39896	0.21931
771.47029	0.21864
769.54161	0.21800
767.61293	0.21740
765.68426	0.21678
763.75558	0.21614
761.82691	0.21545
759.89823	0.21468
757.96956	0.21380
756.04088	0.21285
754.11220	0.21197
752.18353	0.21112
750.25485	0.21011
748.32618	0.20900
746.39750	0.20801
744.46883	0.20717
742.54015	0.20637
740.61147	0.20549
738.68280	0.20457
736.75412	0.20381
734.82545	0.20318
732.89677	0.20255
730.96810	0.20187
729.03942	0.20108
727.11074	0.20031
725.18207	0.19958
723.25339	0.19877
721.32472	0.19789
719.39604	0.19709
717.46737	0.19637
715.53869	0.19564
713.61001	0.19482
711.68134	0.19394
709.75266	0.19304
707.82399	0.19214
705.89531	0.19130
703.96664	0.19051
702.03796	0.18975
700.10928	0.18897
698.18061	0.18813
696.25193	0.18724
694.32326	0.18640
692.39458	0.18561
690.46591	0.18479
688.53723	0.18394
686.60855	0.18310
684.67988	0.18217
682.75120	0.18107
680.82253	0.17986
678.89385	0.17866
676.96518	0.17748
675.03650	0.17623
673.10782	0.17492
671.17915	0.17345
669.25047	0.17183
667.32180	0.17037
665.39312	0.16908
663.46445	0.16771
661.53577	0.16617
659.60709	0.16455
657.67842	0.16291
655.74974	0.16129
653.82107	0.15973
651.89239	0.15820
649.96372	0.15664
648.03504	0.15505
646.10636	0.15351
644.17769	0.15193
642.24901	0.15021
640.32034	0.14840
638.39166	0.14653
636.46299	0.14461
634.53431	0.14269
632.60563	0.14089
630.67696	0.13915
628.74828	0.13733
626.81961	0.13546
624.89093	0.13368
622.96226	0.13198
621.03358	0.13031
619.10490	0.12872
617.17623	0.12716
615.24755	0.12535
613.31888	0.12334
611.39020	0.12141
609.46153	0.11965
607.53285	0.11799
605.60417	0.11633
603.67550	0.11469
601.74682	0.11312
599.81815	0.11165
597.88947	0.11027
595.96080	0.10899
594.03212	0.10781
592.10344	0.10666
590.17477	0.10555
588.24609	0.10450
586.31742	0.10341
584.38874	0.10225
582.46007	0.10108
580.53139	0.09990
578.60271	0.09872
576.67404	0.09762
574.74536	0.09663
572.81669	0.09568
570.88801	0.09473
568.95934	0.09379
567.03066	0.09287
565.10198	0.09203
563.17331	0.09131
561.24463	0.09062
559.31596	0.08993
557.38728	0.08924
555.45861	0.08852
553.52993	0.08776
551.60125	0.08701
549.67258	0.08635
547.74390	0.08584
545.81523	0.08532
543.88655	0.08470
541.95788	0.08420
540.02920	0.08387
538.10052	0.08344
536.17185	0.08279
534.24317	0.08214
532.31450	0.08159
530.38582	0.08105
528.45715	0.08042
526.52847	0.07968
524.59979	0.07886
522.67112	0.07798
520.74244	0.07710
518.81377	0.07626
516.88509	0.07546
514.95642	0.07467
513.02774	0.07383
511.09906	0.07300
509.17039	0.07218
507.24171	0.07136
505.31304	0.07052
503.38436	0.06959
501.45569	0.06854
499.52701	0.06738
497.59833	0.06615
495.66966	0.06487
493.74098	0.06360
491.81231	0.06245
489.88363	0.06131
487.95496	0.06001
486.02628	0.05868
484.09760	0.05744
482.16893	0.05617
480.24025	0.05474
478.31158	0.05330
476.38290	0.05205
474.45423	0.05093
472.52555	0.04985
470.59687	0.04883
468.66820	0.04791
466.73952	0.04709
464.81085	0.04637
462.88217	0.04586
460.95350	0.04555
459.02482	0.04533
457.09614	0.04518
455.16747	0.04509
453.23879	0.04507
451.31012	0.04510
449.38144	0.04499
447.45277	0.04469
445.52409	0.04425
443.59541	0.04372
441.66674	0.04309
439.73806	0.04235
437.80939	0.04157
435.88071	0.04079
433.95204	0.03981
432.02336	0.03861
430.09468	0.03735
428.16601	0.03611
426.23733	0.03486
424.30866	0.03351
422.37998	0.03207
420.45131	0.03063
418.52263	0.02928
416.59395	0.02799
414.66528	0.02675
412.73660	0.02562
410.80793	0.02454
408.87925	0.02343
406.95058	0.02234
405.02190	0.02122
403.09322	0.01991
401.16455	0.01857
399.23587	0.01743
397.30720	0.01642
395.37852	0.01541
393.44985	0.01447
391.52117	0.01357
389.59249	0.01264
387.66382	0.01167
385.73514	0.01074
383.80647	0.00996
381.87779	0.00929
379.94912	0.00860
378.02044	0.00786
376.09176	0.00715
374.16309	0.00650
372.23441	0.00589
370.30574	0.00527
368.37706	0.00475
