7496.76250	0.00228
7494.83382	0.00231
7492.90514	0.00232
7490.97647	0.00233
7489.04779	0.00232
7487.11912	0.00231
7485.19044	0.00230
7483.26177	0.00231
7481.33309	0.00232
7479.40441	0.00233
7477.47574	0.00235
7475.54706	0.00235
7473.61839	0.00235
7471.68971	0.00235
7469.76104	0.00235
7467.83236	0.00235
7465.90368	0.00235
7463.97501	0.00235
7462.04633	0.00236
7460.11766	0.00238
7458.18898	0.00241
7456.26031	0.00242
7454.33163	0.00241
7452.40295	0.00241
7450.47428	0.00242
7448.54560	0.00241
7446.61693	0.00242
7444.68825	0.00243
7442.75958	0.00244
7440.83090	0.00246
7438.90222	0.00247
7436.97355	0.00248
7435.04487	0.00248
7433.11620	0.00249
7431.18752	0.00250
7429.25885	0.00250
7427.33017	0.00250
7425.40149	0.00251
7423.47282	0.00252
7421.54414	0.00253
7419.61547	0.00254
7417.68679	0.00255
7415.75812	0.00255
7413.82944	0.00254
7411.90076	0.00253
7409.97209	0.00253
7408.04341	0.00254
7406.11474	0.00256
7404.18606	0.00258
7402.25739	0.00260
7400.32871	0.00261
7398.40003	0.00260
7396.47136	0.00259
7394.54268	0.00258
7392.61401	0.00259
7390.68533	0.00262
7388.75666	0.00263
7386.82798	0.00263
7384.89930	0.00263
7382.97063	0.00263
7381.04195	0.00265
7379.11328	0.00267
7377.18460	0.00269
7375.25593	0.00269
7373.32725	0.00268
7371.39857	0.00269
7369.46990	0.00271
7367.54122	0.00273
7365.61255	0.00274
7363.68387	0.00273
7361.75520	0.00272
7359.82652	0.00272
7357.89784	0.00274
7355.96917	0.00274
7354.04049	0.00275
7352.11182	0.00276
7350.18314	0.00277
7348.25447	0.00277
7346.32579	0.00278
7344.39711	0.00279
7342.46844	0.00280
7340.53976	0.00281
7338.61109	0.00282
7336.68241	0.00283
7334.75374	0.00283
7332.82506	0.00284
7330.89638	0.00284
7328.96771	0.00285
7327.03903	0.00286
7325.11036	0.00285
7323.18168	0.00285
7321.25301	0.00286
7319.32433	0.00287
7317.39565	0.00287
7315.46698	0.00287
7313.53830	0.00288
7311.60963	0.00289
7309.68095	0.00290
7307.75228	0.00290
7305.82360	0.00292
7303.89492	0.00294
7301.96625	0.00295
7300.03757	0.00294
7298.10890	0.00295
7296.18022	0.00296
7294.25155	0.00297
7292.32287	0.00298
7290.39419	0.00298
7288.46552	0.00298
7286.53684	0.00299
7284.60817	0.00300
7282.67949	0.00302
7280.75082	0.00302
7278.82214	0.00302
7276.89346	0.00302
7274.96479	0.00302
7273.03611	0.00302
7271.10744	0.00303
7269.17876	0.00304
7267.25009	0.00306
7265.32141	0.00307
7263.39273	0.00309
7261.46406	0.00309
7259.53538	0.00309
7257.60671	0.00308
7255.67803	0.00309
7253.74936	0.00310
7251.82068	0.00311
7249.89200	0.00311
7247.96333	0.00311
7246.03465	0.00312
7244.10598	0.00313
7242.17730	0.00315
7240.24863	0.00315
7238.31995	0.00315
7236.39127	0.00316
7234.46260	0.00318
7232.53392	0.00320
7230.60525	0.00321
7228.67657	0.00322
7226.74790	0.00322
7224.81922	0.00321
7222.89054	0.00322
7220.96187	0.00324
7219.03319	0.00326
7217.10452	0.00326
7215.17584	0.00326
7213.24717	0.00326
7211.31849	0.00325
7209.38981	0.00325
7207.46114	0.00326
7205.53246	0.00328
7203.60379	0.00331
7201.67511	0.00332
7199.74644	0.00332
7197.81776	0.00331
7195.88908	0.00331
7193.96041	0.00332
7192.03173	0.00333
7190.10306	0.00334
7188.17438	0.00335
7186.24571	0.00338
7184.31703	0.00340
7182.38835	0.00339
7180.45968	0.00339
7178.53100	0.00340
7176.60233	0.00341
7174.67365	0.00341
7172.74498	0.00341
7170.81630	0.00341
7168.88762	0.00343
7166.95895	0.00344
7165.03027	0.00346
7163.10160	0.00347
7161.17292	0.00347
7159.24425	0.00347
7157.31557	0.00347
7155.38689	0.00349
7153.45822	0.00350
7151.52954	0.00350
7149.60087	0.00351
7147.67219	0.00352
7145.74352	0.00353
7143.81484	0.00353
7141.88616	0.00352
7139.95749	0.00353
7138.02881	0.00353
7136.10014	0.00354
7134.17146	0.00355
7132.24279	0.00357
7130.31411	0.00358
7128.38543	0.00360
7126.45676	0.00361
7124.52808	0.00362
7122.59941	0.00363
7120.67073	0.00364
7118.74206	0.00365
7116.81338	0.00364
7114.88470	0.00364
7112.95603	0.00365
7111.02735	0.00366
7109.09868	0.00367
7107.17000	0.00367
7105.24133	0.00369
7103.31265	0.00372
7101.38397	0.00373
7099.45530	0.00373
7097.52662	0.00374
7095.59795	0.00375
7093.66927	0.00375
7091.74060	0.00374
7089.81192	0.00375
7087.88324	0.00377
7085.95457	0.00378
7084.02589	0.00378
7082.09722	0.00378
7080.16854	0.00379
7078.23987	0.00380
7076.31119	0.00380
7074.38251	0.00379
7072.45384	0.00380
7070.52516	0.00382
7068.59649	0.00384
7066.66781	0.00385
7064.73914	0.00386
7062.81046	0.00388
7060.88178	0.00389
7058.95311	0.00389
7057.02443	0.00388
7055.09576	0.00388
7053.16708	0.00389
7051.23841	0.00392
7049.30973	0.00393
7047.38105	0.00394
7045.45238	0.00395
7043.52370	0.00396
7041.59503	0.00396
7039.66635	0.00397
7037.73768	0.00398
7035.80900	0.00398
7033.88032	0.00399
7031.95165	0.00401
7030.02297	0.00403
7028.09430	0.00404
7026.16562	0.00404
7024.23695	0.00403
7022.30827	0.00403
7020.37959	0.00405
7018.45092	0.00408
7016.52224	0.00410
7014.59357	0.00411
7012.66489	0.00410
7010.73622	0.00410
7008.80754	0.00411
7006.87886	0.00412
7004.95019	0.00414
7003.02151	0.00415
7001.09284	0.00416
6999.16416	0.00416
6997.23549	0.00415
6995.30681	0.00416
6993.37813	0.00417
6991.44946	0.00418
6989.52078	0.00419
6987.59211	0.00420
6985.66343	0.00421
6983.73476	0.00421
6981.80608	0.00423
6979.87740	0.00425
6977.94873	0.00429
6976.02005	0.00430
6974.09138	0.00429
6972.16270	0.00427
6970.23403	0.00427
6968.30535	0.00429
6966.37667	0.00430
6964.44800	0.00431
6962.51932	0.00432
6960.59065	0.00433
6958.66197	0.00434
6956.73330	0.00435
6954.80462	0.00436
6952.87594	0.00436
6950.94727	0.00438
6949.01859	0.00440
6947.08992	0.00442
6945.16124	0.00443
6943.23257	0.00444
6941.30389	0.00445
6939.37521	0.00445
6937.44654	0.00443
6935.51786	0.00443
6933.58919	0.00446
6931.66051	0.00448
6929.73184	0.00449
6927.80316	0.00450
6925.87448	0.00450
6923.94581	0.00450
6922.01713	0.00451
6920.08846	0.00452
6918.15978	0.00454
6916.23111	0.00455
6914.30243	0.00454
6912.37375	0.00455
6910.44508	0.00456
6908.51640	0.00458
6906.58773	0.00460
6904.65905	0.00460
6902.73038	0.00461
6900.80170	0.00462
6898.87302	0.00463
6896.94435	0.00464
6895.01567	0.00465
6893.08700	0.00468
6891.15832	0.00469
6889.22965	0.00468
6887.30097	0.00469
6885.37229	0.00470
6883.44362	0.00472
6881.51494	0.00474
6879.58627	0.00474
6877.65759	0.00475
6875.72892	0.00477
6873.80024	0.00478
6871.87156	0.00478
6869.94289	0.00477
6868.01421	0.00476
6866.08554	0.00476
6864.15686	0.00478
6862.22819	0.00481
6860.29951	0.00483
6858.37083	0.00484
6856.44216	0.00484
6854.51348	0.00484
6852.58481	0.00485
6850.65613	0.00487
6848.72746	0.00488
6846.79878	0.00489
6844.87010	0.00490
6842.94143	0.00491
6841.01275	0.00492
6839.08408	0.00493
6837.15540	0.00496
6835.22673	0.00498
6833.29805	0.00501
6831.36937	0.00503
6829.44070	0.00504
6827.51202	0.00502
6825.58335	0.00502
6823.65467	0.00503
6821.72600	0.00505
6819.79732	0.00506
6817.86864	0.00507
6815.93997	0.00507
6814.01129	0.00507
6812.08262	0.00508
6810.15394	0.00510
6808.22527	0.00512
6806.29659	0.00513
6804.36791	0.00513
6802.43924	0.00513
6800.51056	0.00516
6798.58189	0.00517
6796.65321	0.00518
6794.72454	0.00519
6792.79586	0.00520
6790.86718	0.00521
6788.93851	0.00522
6787.00983	0.00524
6785.08116	0.00526
6783.15248	0.00529
6781.22381	0.00530
6779.29513	0.00530
6777.36645	0.00528
6775.43778	0.00528
6773.50910	0.00530
6771.58043	0.00532
6769.65175	0.00533
6767.72308	0.00533
6765.79440	0.00536
6763.86572	0.00538
6761.93705	0.00539
6760.00837	0.00538
6758.07970	0.00539
6756.15102	0.00541
6754.22235	0.00543
6752.29367	0.00544
6750.36499	0.00546
6748.43632	0.00546
6746.50764	0.00547
6744.57897	0.00548
6742.65029	0.00550
6740.72162	0.00553
6738.79294	0.00554
6736.86426	0.00555
6734.93559	0.00556
6733.00691	0.00556
6731.07824	0.00556
6729.14956	0.00556
6727.22089	0.00557
6725.29221	0.00558
6723.36353	0.00560
6721.43486	0.00562
6719.50618	0.00563
6717.57751	0.00564
6715.64883	0.00565
6713.72016	0.00568
6711.79148	0.00571
6709.86280	0.00572
6707.93413	0.00571
6706.00545	0.00571
6704.07678	0.00572
6702.14810	0.00573
6700.21943	0.00574
6698.29075	0.00575
6696.36207	0.00576
6694.43340	0.00577
6692.50472	0.00579
6690.57605	0.00581
6688.64737	0.00584
6686.71870	0.00585
6684.79002	0.00585
6682.86134	0.00585
6680.93267	0.00587
6679.00399	0.00589
6677.07532	0.00591
6675.14664	0.00591
6673.21797	0.00592
6671.28929	0.00593
6669.36061	0.00595
6667.43194	0.00596
6665.50326	0.00596
6663.57459	0.00597
6661.64591	0.00598
6659.71724	0.00600
6657.78856	0.00601
6655.85988	0.00602
6653.93121	0.00602
6652.00253	0.00600
6650.07386	0.00600
6648.14518	0.00603
6646.21651	0.00606
6644.28783	0.00609
6642.35915	0.00611
6640.43048	0.00612
6638.50180	0.00613
6636.57313	0.00613
6634.64445	0.00614
6632.71578	0.00617
6630.78710	0.00620
6628.85842	0.00621
6626.92975	0.00621
6625.00107	0.00621
6623.07240	0.00623
6621.14372	0.00625
6619.21505	0.00627
6617.28637	0.00630
6615.35769	0.00632
6613.42902	0.00631
6611.50034	0.00630
6609.57167	0.00631
6607.64299	0.00633
6605.71432	0.00634
6603.78564	0.00636
6601.85696	0.00638
6599.92829	0.00639
6597.99961	0.00640
6596.07094	0.00641
6594.14226	0.00643
6592.21359	0.00645
6590.28491	0.00647
6588.35623	0.00648
6586.42756	0.00649
6584.49888	0.00651
6582.57021	0.00653
6580.64153	0.00655
6578.71286	0.00656
6576.78418	0.00656
6574.85550	0.00657
6572.92683	0.00659
6570.99815	0.00661
6569.06948	0.00663
6567.14080	0.00665
6565.21213	0.00665
6563.28345	0.00666
6561.35477	0.00667
6559.42610	0.00668
6557.49742	0.00670
6555.56875	0.00670
6553.64007	0.00671
6551.71140	0.00673
6549.78272	0.00674
6547.85404	0.00673
6545.92537	0.00674
6543.99669	0.00676
6542.06802	0.00679
6540.13934	0.00681
6538.21067	0.00682
6536.28199	0.00684
6534.35331	0.00686
6532.42464	0.00687
6530.49596	0.00689
6528.56729	0.00692
6526.63861	0.00695
6524.70994	0.00696
6522.78126	0.00695
6520.85258	0.00695
6518.92391	0.00696
6516.99523	0.00699
6515.06656	0.00702
6513.13788	0.00704
6511.20921	0.00705
6509.28053	0.00707
6507.35185	0.00709
6505.42318	0.00709
6503.49450	0.00709
6501.56583	0.00711
6499.63715	0.00714
6497.70848	0.00714
6495.77980	0.00715
6493.85112	0.00717
6491.92245	0.00717
6489.99377	0.00716
6488.06510	0.00718
6486.13642	0.00722
6484.20775	0.00725
6482.27907	0.00727
6480.35039	0.00729
6478.42172	0.00730
6476.49304	0.00731
6474.56437	0.00733
6472.63569	0.00734
6470.70702	0.00735
6468.77834	0.00735
6466.84966	0.00737
6464.92099	0.00739
6462.99231	0.00740
6461.06364	0.00741
6459.13496	0.00741
6457.20629	0.00744
6455.27761	0.00747
6453.34893	0.00749
6451.42026	0.00751
6449.49158	0.00752
6447.56291	0.00753
6445.63423	0.00753
6443.70556	0.00754
6441.77688	0.00756
6439.84820	0.00759
6437.91953	0.00761
6435.99085	0.00763
6434.06218	0.00764
6432.13350	0.00765
6430.20483	0.00766
6428.27615	0.00767
6426.34747	0.00769
6424.41880	0.00771
6422.49012	0.00773
6420.56145	0.00775
6418.63277	0.00778
6416.70410	0.00779
6414.77542	0.00780
6412.84674	0.00781
6410.91807	0.00782
6408.98939	0.00785
6407.06072	0.00787
6405.13204	0.00790
6403.20337	0.00792
6401.27469	0.00793
6399.34601	0.00796
6397.41734	0.00797
6395.48866	0.00796
6393.55999	0.00795
6391.63131	0.00797
6389.70264	0.00801
6387.77396	0.00804
6385.84528	0.00806
6383.91661	0.00808
6381.98793	0.00808
6380.05926	0.00809
6378.13058	0.00811
6376.20191	0.00813
6374.27323	0.00814
6372.34455	0.00815
6370.41588	0.00816
6368.48720	0.00818
6366.55853	0.00820
6364.62985	0.00821
6362.70118	0.00822
6360.77250	0.00826
6358.84382	0.00829
6356.91515	0.00829
6354.98647	0.00830
6353.05780	0.00832
6351.12912	0.00834
6349.20045	0.00836
6347.27177	0.00837
6345.34309	0.00839
6343.41442	0.00842
6341.48574	0.00843
6339.55707	0.00844
6337.62839	0.00846
6335.69972	0.00849
6333.77104	0.00851
6331.84236	0.00853
6329.91369	0.00855
6327.98501	0.00856
6326.05634	0.00857
6324.12766	0.00858
6322.19899	0.00858
6320.27031	0.00861
6318.34163	0.00865
6316.41296	0.00867
6314.48428	0.00868
6312.55561	0.00870
6310.62693	0.00873
6308.69826	0.00876
6306.76958	0.00878
6304.84090	0.00879
6302.91223	0.00881
6300.98355	0.00883
6299.05488	0.00884
6297.12620	0.00886
6295.19753	0.00888
6293.26885	0.00891
6291.34017	0.00893
6289.41150	0.00893
6287.48282	0.00895
6285.55415	0.00897
6283.62547	0.00898
6281.69680	0.00899
6279.76812	0.00900
6277.83944	0.00902
6275.91077	0.00905
6273.98209	0.00908
6272.05342	0.00910
6270.12474	0.00911
6268.19607	0.00912
6266.26739	0.00914
6264.33871	0.00917
6262.41004	0.00920
6260.48136	0.00922
6258.55269	0.00923
6256.62401	0.00923
6254.69534	0.00924
6252.76666	0.00925
6250.83798	0.00926
6248.90931	0.00929
6246.98063	0.00933
6245.05196	0.00936
6243.12328	0.00938
6241.19461	0.00940
6239.26593	0.00942
6237.33725	0.00945
6235.40858	0.00946
6233.47990	0.00948
6231.55123	0.00949
6229.62255	0.00951
6227.69388	0.00953
6225.76520	0.00954
6223.83652	0.00957
6221.90785	0.00962
6219.97917	0.00965
6218.05050	0.00965
6216.12182	0.00966
6214.19315	0.00967
6212.26447	0.00969
6210.33579	0.00969
6208.40712	0.00971
6206.47844	0.00973
6204.54977	0.00976
6202.62109	0.00979
6200.69242	0.00982
6198.76374	0.00984
6196.83506	0.00985
6194.90639	0.00988
6192.97771	0.00990
6191.04904	0.00991
6189.12036	0.00992
6187.19169	0.00994
6185.26301	0.00995
6183.33433	0.00995
6181.40566	0.00996
6179.47698	0.00999
6177.54831	0.01003
6175.61963	0.01006
6173.69096	0.01007
6171.76228	0.01009
6169.83360	0.01013
6167.90493	0.01016
6165.97625	0.01018
6164.04758	0.01019
6162.11890	0.01021
6160.19023	0.01024
6158.26155	0.01027
6156.33287	0.01029
6154.40420	0.01030
6152.47552	0.01032
6150.54685	0.01035
6148.61817	0.01038
6146.68950	0.01040
6144.76082	0.01043
6142.83214	0.01044
6140.90347	0.01046
6138.97479	0.01047
6137.04612	0.01048
6135.11744	0.01050
6133.18877	0.01054
6131.26009	0.01057
6129.33141	0.01058
6127.40274	0.01058
6125.47406	0.01060
6123.54539	0.01063
6121.61671	0.01066
6119.68804	0.01069
6117.75936	0.01071
6115.83068	0.01073
6113.90201	0.01076
6111.97333	0.01079
6110.04466	0.01081
6108.11598	0.01081
6106.18731	0.01083
6104.25863	0.01086
6102.32995	0.01090
6100.40128	0.01093
6098.47260	0.01095
6096.54393	0.01095
6094.61525	0.01097
6092.68658	0.01099
6090.75790	0.01102
6088.82922	0.01107
6086.90055	0.01112
6084.97187	0.01114
6083.04320	0.01114
6081.11452	0.01113
6079.18585	0.01114
6077.25717	0.01118
6075.32849	0.01123
6073.39982	0.01126
6071.47114	0.01127
6069.54247	0.01128
6067.61379	0.01130
6065.68512	0.01132
6063.75644	0.01135
6061.82776	0.01138
6059.89909	0.01143
6057.97041	0.01146
6056.04174	0.01148
6054.11306	0.01149
6052.18439	0.01150
6050.25571	0.01152
6048.32703	0.01154
6046.39836	0.01158
6044.46968	0.01160
6042.54101	0.01162
6040.61233	0.01163
6038.68366	0.01166
6036.75498	0.01167
6034.82630	0.01168
6032.89763	0.01170
6030.96895	0.01174
6029.04028	0.01177
6027.11160	0.01181
6025.18293	0.01184
6023.25425	0.01186
6021.32557	0.01188
6019.39690	0.01190
6017.46822	0.01192
6015.53955	0.01194
6013.61087	0.01197
6011.68220	0.01200
6009.75352	0.01203
6007.82484	0.01205
6005.89617	0.01206
6003.96749	0.01208
6002.03882	0.01212
6000.11014	0.01215
5998.18147	0.01216
5996.25279	0.01217
5994.32411	0.01219
5992.39544	0.01223
5990.46676	0.01226
5988.53809	0.01230
5986.60941	0.01233
5984.68074	0.01236
5982.75206	0.01239
5980.82338	0.01242
5978.89471	0.01245
5976.96603	0.01246
5975.03736	0.01249
5973.10868	0.01251
5971.18001	0.01253
5969.25133	0.01253
5967.32265	0.01255
5965.39398	0.01259
5963.46530	0.01263
5961.53663	0.01266
5959.60795	0.01269
5957.67928	0.01271
5955.75060	0.01274
5953.82192	0.01278
5951.89325	0.01281
5949.96457	0.01284
5948.03590	0.01286
5946.10722	0.01288
5944.17855	0.01290
5942.24987	0.01290
5940.32119	0.01292
5938.39252	0.01295
5936.46384	0.01298
5934.53517	0.01302
5932.60649	0.01305
5930.67782	0.01307
5928.74914	0.01310
5926.82046	0.01315
5924.89179	0.01318
5922.96311	0.01320
5921.03444	0.01321
5919.10576	0.01325
5917.17709	0.01328
5915.24841	0.01331
5913.31973	0.01334
5911.39106	0.01335
5909.46238	0.01338
5907.53371	0.01341
5905.60503	0.01342
5903.67636	0.01344
5901.74768	0.01348
5899.81900	0.01352
5897.89033	0.01356
5895.96165	0.01358
5894.03298	0.01359
5892.10430	0.01361
5890.17563	0.01364
5888.24695	0.01367
5886.31827	0.01371
5884.38960	0.01375
5882.46092	0.01377
5880.53225	0.01379
5878.60357	0.01382
5876.67490	0.01385
5874.74622	0.01386
5872.81755	0.01387
5870.88887	0.01392
5868.96019	0.01396
5867.03152	0.01399
5865.10284	0.01402
5863.17417	0.01405
5861.24549	0.01408
5859.31682	0.01410
5857.38814	0.01414
5855.45946	0.01417
5853.53079	0.01419
5851.60211	0.01421
5849.67344	0.01424
5847.74476	0.01427
5845.81609	0.01430
5843.88741	0.01433
5841.95873	0.01436
5840.03006	0.01440
5838.10138	0.01445
5836.17271	0.01448
5834.24403	0.01450
5832.31536	0.01451
5830.38668	0.01454
5828.45800	0.01457
5826.52933	0.01459
5824.60065	0.01462
5822.67198	0.01465
5820.74330	0.01468
5818.81463	0.01470
5816.88595	0.01474
5814.95727	0.01478
5813.02860	0.01482
5811.09992	0.01485
5809.17125	0.01487
5807.24257	0.01489
5805.31390	0.01491
5803.38522	0.01493
5801.45654	0.01496
5799.52787	0.01499
5797.59919	0.01503
5795.67052	0.01506
5793.74184	0.01510
5791.81317	0.01513
5789.88449	0.01517
5787.95581	0.01521
5786.02714	0.01523
5784.09846	0.01525
5782.16979	0.01527
5780.24111	0.01529
5778.31244	0.01532
5776.38376	0.01536
5774.45508	0.01540
5772.52641	0.01544
5770.59773	0.01548
5768.66906	0.01553
5766.74038	0.01557
5764.81171	0.01559
5762.88303	0.01560
5760.95435	0.01563
5759.02568	0.01566
5757.09700	0.01569
5755.16833	0.01571
5753.23965	0.01574
5751.31098	0.01578
5749.38230	0.01582
5747.45362	0.01586
5745.52495	0.01591
5743.59627	0.01594
5741.66760	0.01596
5739.73892	0.01598
5737.81025	0.01599
5735.88157	0.01600
5733.95289	0.01602
5732.02422	0.01605
5730.09554	0.01609
5728.16687	0.01613
5726.23819	0.01616
5724.30952	0.01619
5722.38084	0.01622
5720.45216	0.01625
5718.52349	0.01626
5716.59481	0.01630
5714.66614	0.01635
5712.73746	0.01641
5710.80879	0.01645
5708.88011	0.01649
5706.95143	0.01654
5705.02276	0.01658
5703.09408	0.01662
5701.16541	0.01665
5699.23673	0.01669
5697.30806	0.01671
5695.37938	0.01672
5693.45070	0.01672
5691.52203	0.01676
5689.59335	0.01680
5687.66468	0.01684
5685.73600	0.01686
5683.80733	0.01689
5681.87865	0.01692
5679.94997	0.01696
5678.02130	0.01700
5676.09262	0.01702
5674.16395	0.01705
5672.23527	0.01710
5670.30660	0.01714
5668.37792	0.01718
5666.44924	0.01723
5664.52057	0.01728
5662.59189	0.01732
5660.66322	0.01733
5658.73454	0.01735
5656.80587	0.01739
5654.87719	0.01743
5652.94851	0.01745
5651.01984	0.01747
5649.09116	0.01750
5647.16249	0.01753
5645.23381	0.01757
5643.30514	0.01763
5641.37646	0.01767
5639.44778	0.01768
5637.51911	0.01771
5635.59043	0.01775
5633.66176	0.01779
5631.73308	0.01783
5629.80441	0.01787
5627.87573	0.01791
5625.94705	0.01794
5624.01838	0.01796
5622.08970	0.01797
5620.16103	0.01799
5618.23235	0.01803
5616.30368	0.01807
5614.37500	0.01812
5612.44632	0.01817
5610.51765	0.01820
5608.58897	0.01822
5606.66030	0.01824
5604.73162	0.01829
5602.80295	0.01834
5600.87427	0.01837
5598.94559	0.01840
5597.01692	0.01843
5595.08824	0.01846
5593.15957	0.01849
5591.23089	0.01852
5589.30222	0.01856
5587.37354	0.01860
5585.44486	0.01864
5583.51619	0.01868
5581.58751	0.01873
5579.65884	0.01878
5577.73016	0.01882
5575.80149	0.01885
5573.87281	0.01889
5571.94413	0.01891
5570.01546	0.01893
5568.08678	0.01897
5566.15811	0.01902
5564.22943	0.01908
5562.30076	0.01912
5560.37208	0.01916
5558.44340	0.01917
5556.51473	0.01919
5554.58605	0.01922
5552.65738	0.01927
5550.72870	0.01932
5548.80003	0.01936
5546.87135	0.01940
5544.94267	0.01945
5543.01400	0.01951
5541.08532	0.01953
5539.15665	0.01954
5537.22797	0.01956
5535.29930	0.01960
5533.37062	0.01963
5531.44194	0.01965
5529.51327	0.01969
5527.58459	0.01974
5525.65592	0.01978
5523.72724	0.01983
5521.79857	0.01988
5519.86989	0.01992
5517.94121	0.01997
5516.01254	0.02000
5514.08386	0.02004
5512.15519	0.02006
5510.22651	0.02010
5508.29784	0.02014
5506.36916	0.02017
5504.44048	0.02020
5502.51181	0.02024
5500.58313	0.02029
5498.65446	0.02034
5496.72578	0.02036
5494.79711	0.02038
5492.86843	0.02040
5490.93975	0.02044
5489.01108	0.02047
5487.08240	0.02051
5485.15373	0.02055
5483.22505	0.02061
5481.29638	0.02067
5479.36770	0.02072
5477.43902	0.02075
5475.51035	0.02078
5473.58167	0.02081
5471.65300	0.02083
5469.72432	0.02086
5467.79565	0.02091
5465.86697	0.02095
5463.93829	0.02099
5462.00962	0.02103
5460.08094	0.02108
5458.15227	0.02112
5456.22359	0.02115
5454.29492	0.02120
5452.36624	0.02125
5450.43756	0.02130
5448.50889	0.02135
5446.58021	0.02140
5444.65154	0.02144
5442.72286	0.02146
5440.79419	0.02149
5438.86551	0.02152
5436.93683	0.02155
5435.00816	0.02158
5433.07948	0.02163
5431.15081	0.02168
5429.22213	0.02172
5427.29346	0.02175
5425.36478	0.02179
5423.43610	0.02183
5421.50743	0.02187
5419.57875	0.02190
5417.65008	0.02195
5415.72140	0.02200
5413.79273	0.02203
5411.86405	0.02206
5409.93537	0.02211
5408.00670	0.02216
5406.07802	0.02219
5404.14935	0.02222
5402.22067	0.02226
5400.29200	0.02231
5398.36332	0.02234
5396.43464	0.02237
5394.50597	0.02241
5392.57729	0.02246
5390.64862	0.02249
5388.71994	0.02253
5386.79127	0.02258
5384.86259	0.02262
5382.93391	0.02267
5381.00524	0.02274
5379.07656	0.02279
5377.14789	0.02282
5375.21921	0.02284
5373.29054	0.02288
5371.36186	0.02292
5369.43318	0.02298
5367.50451	0.02302
5365.57583	0.02305
5363.64716	0.02308
5361.71848	0.02311
5359.78981	0.02316
5357.86113	0.02321
5355.93245	0.02325
5354.00378	0.02329
5352.07510	0.02332
5350.14643	0.02338
5348.21775	0.02343
5346.28908	0.02347
5344.36040	0.02352
5342.43172	0.02355
5340.50305	0.02358
5338.57437	0.02363
5336.64570	0.02369
5334.71702	0.02374
5332.78835	0.02376
5330.85967	0.02379
5328.93099	0.02384
5327.00232	0.02389
5325.07364	0.02394
5323.14497	0.02398
5321.21629	0.02402
5319.28762	0.02406
5317.35894	0.02410
5315.43026	0.02415
5313.50159	0.02420
5311.57291	0.02425
5309.64424	0.02427
5307.71556	0.02429
5305.78689	0.02433
5303.85821	0.02441
5301.92953	0.02446
5300.00086	0.02449
5298.07218	0.02452
5296.14351	0.02458
5294.21483	0.02462
5292.28616	0.02465
5290.35748	0.02468
5288.42880	0.02471
5286.50013	0.02474
5284.57145	0.02477
5282.64278	0.02481
5280.71410	0.02486
5278.78543	0.02493
5276.85675	0.02500
5274.92807	0.02506
5272.99940	0.02510
5271.07072	0.02513
5269.14205	0.02517
5267.21337	0.02521
5265.28470	0.02523
5263.35602	0.02526
5261.42734	0.02531
5259.49867	0.02537
5257.56999	0.02542
5255.64132	0.02546
5253.71264	0.02550
5251.78397	0.02555
5249.85529	0.02561
5247.92661	0.02567
5245.99794	0.02572
5244.06926	0.02575
5242.14059	0.02578
5240.21191	0.02583
5238.28324	0.02589
5236.35456	0.02594
5234.42588	0.02597
5232.49721	0.02602
5230.56853	0.02606
5228.63986	0.02610
5226.71118	0.02613
5224.78251	0.02618
5222.85383	0.02623
5220.92515	0.02627
5218.99648	0.02629
5217.06780	0.02634
5215.13913	0.02640
5213.21045	0.02648
5211.28178	0.02654
5209.35310	0.02659
5207.42442	0.02661
5205.49575	0.02663
5203.56707	0.02668
5201.63840	0.02674
5199.70972	0.02681
5197.78105	0.02687
5195.85237	0.02691
5193.92369	0.02694
5191.99502	0.02697
5190.06634	0.02701
5188.13767	0.02707
5186.20899	0.02711
5184.28032	0.02715
5182.35164	0.02720
5180.42296	0.02724
5178.49429	0.02728
5176.56561	0.02733
5174.63694	0.02737
5172.70826	0.02741
5170.77959	0.02744
5168.85091	0.02748
5166.92223	0.02753
5164.99356	0.02758
5163.06488	0.02764
5161.13621	0.02769
5159.20753	0.02774
5157.27886	0.02780
5155.35018	0.02784
5153.42150	0.02788
5151.49283	0.02792
5149.56415	0.02796
5147.63548	0.02801
5145.70680	0.02805
5143.77813	0.02811
5141.84945	0.02817
5139.92077	0.02822
5137.99210	0.02828
5136.06342	0.02834
5134.13475	0.02837
5132.20607	0.02839
5130.27740	0.02844
5128.34872	0.02852
5126.42004	0.02856
5124.49137	0.02858
5122.56269	0.02861
5120.63402	0.02865
5118.70534	0.02869
5116.77667	0.02874
5114.84799	0.02880
5112.91931	0.02886
5110.99064	0.02889
5109.06196	0.02892
5107.13329	0.02897
5105.20461	0.02903
5103.27594	0.02907
5101.34726	0.02911
5099.41858	0.02916
5097.48991	0.02924
5095.56123	0.02931
5093.63256	0.02936
5091.70388	0.02940
5089.77521	0.02945
5087.84653	0.02950
5085.91785	0.02953
5083.98918	0.02955
5082.06050	0.02958
5080.13183	0.02962
5078.20315	0.02967
5076.27448	0.02972
5074.34580	0.02978
5072.41712	0.02983
5070.48845	0.02988
5068.55977	0.02992
5066.63110	0.02999
5064.70242	0.03005
5062.77375	0.03011
5060.84507	0.03016
5058.91639	0.03020
5056.98772	0.03023
5055.05904	0.03028
5053.13037	0.03034
5051.20169	0.03039
5049.27302	0.03043
5047.34434	0.03048
5045.41566	0.03054
5043.48699	0.03061
5041.55831	0.03067
5039.62964	0.03072
5037.70096	0.03075
5035.77229	0.03078
5033.84361	0.03084
5031.91493	0.03089
5029.98626	0.03093
5028.05758	0.03097
5026.12891	0.03102
5024.20023	0.03108
5022.27156	0.03112
5020.34288	0.03117
5018.41420	0.03125
5016.48553	0.03132
5014.55685	0.03137
5012.62818	0.03142
5010.69950	0.03145
5008.77083	0.03148
5006.84215	0.03152
5004.91347	0.03158
5002.98480	0.03164
5001.05612	0.03170
4999.12745	0.03175
4997.19877	0.03180
4995.27010	0.03186
4993.34142	0.03192
4991.41274	0.03197
4989.48407	0.03201
4987.55539	0.03206
4985.62672	0.03213
4983.69804	0.03219
4981.76937	0.03224
4979.84069	0.03227
4977.91201	0.03231
4975.98334	0.03235
4974.05466	0.03242
4972.12599	0.03249
4970.19731	0.03254
4968.26864	0.03258
4966.33996	0.03262
4964.41128	0.03267
4962.48261	0.03272
4960.55393	0.03277
4958.62526	0.03283
4956.69658	0.03290
4954.76791	0.03295
4952.83923	0.03299
4950.91055	0.03304
4948.98188	0.03309
4947.05320	0.03314
4945.12453	0.03318
4943.19585	0.03323
4941.26718	0.03330
4939.33850	0.03337
4937.40982	0.03340
4935.48115	0.03342
4933.55247	0.03346
4931.62380	0.03352
4929.69512	0.03359
4927.76645	0.03365
4925.83777	0.03370
4923.90909	0.03375
4921.98042	0.03382
4920.05174	0.03389
4918.12307	0.03396
4916.19439	0.03402
4914.26572	0.03408
4912.33704	0.03414
4910.40836	0.03418
4908.47969	0.03422
4906.55101	0.03426
4904.62234	0.03431
4902.69366	0.03438
4900.76499	0.03443
4898.83631	0.03447
4896.90763	0.03451
4894.97896	0.03456
4893.05028	0.03462
4891.12161	0.03469
4889.19293	0.03475
4887.26426	0.03480
4885.33558	0.03486
4883.40690	0.03492
4881.47823	0.03499
4879.54955	0.03505
4877.62088	0.03510
4875.69220	0.03515
4873.76353	0.03520
4871.83485	0.03524
4869.90617	0.03529
4867.97750	0.03534
4866.04882	0.03541
4864.12015	0.03548
4862.19147	0.03554
4860.26280	0.03557
4858.33412	0.03562
4856.40544	0.03569
4854.47677	0.03576
4852.54809	0.03580
4850.61942	0.03585
4848.69074	0.03589
4846.76207	0.03592
4844.83339	0.03596
4842.90471	0.03603
4840.97604	0.03611
4839.04736	0.03618
4837.11869	0.03624
4835.19001	0.03631
4833.26134	0.03638
4831.33266	0.03643
4829.40398	0.03647
4827.47531	0.03651
4825.54663	0.03657
4823.61796	0.03666
4821.68928	0.03672
4819.76061	0.03676
4817.83193	0.03680
4815.90325	0.03684
4813.97458	0.03689
4812.04590	0.03695
4810.11723	0.03701
4808.18855	0.03709
4806.25988	0.03717
4804.33120	0.03726
4802.40252	0.03733
4800.47385	0.03739
4798.54517	0.03745
4796.61650	0.03751
4794.68782	0.03757
4792.75915	0.03761
4790.83047	0.03764
4788.90179	0.03766
4786.97312	0.03773
4785.04444	0.03781
4783.11577	0.03789
4781.18709	0.03796
4779.25842	0.03803
4777.32974	0.03808
4775.40106	0.03812
4773.47239	0.03817
4771.54371	0.03821
4769.61504	0.03826
4767.68636	0.03830
4765.75769	0.03837
4763.82901	0.03844
4761.90033	0.03852
4759.97166	0.03859
4758.04298	0.03867
4756.11431	0.03873
4754.18563	0.03878
4752.25696	0.03884
4750.32828	0.03891
4748.39960	0.03898
4746.47093	0.03904
4744.54225	0.03910
4742.61358	0.03916
4740.68490	0.03922
4738.75623	0.03930
4736.82755	0.03937
4734.89887	0.03941
4732.97020	0.03944
4731.04152	0.03949
4729.11285	0.03957
4727.18417	0.03965
4725.25550	0.03974
4723.32682	0.03983
4721.39814	0.03989
4719.46947	0.03993
4717.54079	0.03998
4715.61212	0.04005
4713.68344	0.04011
4711.75477	0.04014
4709.82609	0.04019
4707.89741	0.04026
4705.96874	0.04032
4704.04006	0.04038
4702.11139	0.04045
4700.18271	0.04052
4698.25404	0.04057
4696.32536	0.04062
4694.39668	0.04069
4692.46801	0.04075
4690.53933	0.04081
4688.61066	0.04090
4686.68198	0.04097
4684.75331	0.04103
4682.82463	0.04108
4680.89595	0.04116
4678.96728	0.04125
4677.03860	0.04132
4675.10993	0.04138
4673.18125	0.04144
4671.25258	0.04151
4669.32390	0.04158
4667.39522	0.04165
4665.46655	0.04170
4663.53787	0.04176
4661.60920	0.04183
4659.68052	0.04189
4657.75185	0.04196
4655.82317	0.04203
4653.89449	0.04211
4651.96582	0.04219
4650.03714	0.04226
4648.10847	0.04231
4646.17979	0.04237
4644.25112	0.04245
4642.32244	0.04253
4640.39376	0.04262
4638.46509	0.04269
4636.53641	0.04273
4634.60774	0.04277
4632.67906	0.04283
4630.75039	0.04291
4628.82171	0.04298
4626.89303	0.04305
4624.96436	0.04310
4623.03568	0.04315
4621.10701	0.04322
4619.17833	0.04330
4617.24966	0.04339
4615.32098	0.04347
4613.39230	0.04354
4611.46363	0.04360
4609.53495	0.04367
4607.60628	0.04374
4605.67760	0.04381
4603.74893	0.04389
4601.82025	0.04399
4599.89157	0.04407
4597.96290	0.04413
4596.03422	0.04417
4594.10555	0.04423
4592.17687	0.04432
4590.24820	0.04441
4588.31952	0.04448
4586.39084	0.04455
4584.46217	0.04463
4582.53349	0.04471
4580.60482	0.04481
4578.67614	0.04489
4576.74747	0.04496
4574.81879	0.04502
4572.89011	0.04507
4570.96144	0.04513
4569.03276	0.04521
4567.10409	0.04530
4565.17541	0.04538
4563.24674	0.04545
4561.31806	0.04554
4559.38938	0.04561
4557.46071	0.04568
4555.53203	0.04575
4553.60336	0.04583
4551.67468	0.04591
4549.74601	0.04598
4547.81733	0.04605
4545.88865	0.04612
4543.95998	0.04619
4542.03130	0.04627
4540.10263	0.04635
4538.17395	0.04643
4536.24528	0.04652
4534.31660	0.04660
4532.38792	0.04667
4530.45925	0.04673
4528.53057	0.04680
4526.60190	0.04689
4524.67322	0.04698
4522.74455	0.04708
4520.81587	0.04716
4518.88719	0.04724
4516.95852	0.04728
4515.02984	0.04733
4513.10117	0.04741
4511.17249	0.04750
4509.24382	0.04759
4507.31514	0.04767
4505.38646	0.04775
4503.45779	0.04783
4501.52911	0.04791
4499.60044	0.04800
4497.67176	0.04809
4495.74309	0.04819
4493.81441	0.04827
4491.88573	0.04833
4489.95706	0.04838
4488.02838	0.04846
4486.09971	0.04855
4484.17103	0.04866
4482.24236	0.04876
4480.31368	0.04884
4478.38500	0.04892
4476.45633	0.04900
4474.52765	0.04907
4472.59898	0.04915
4470.67030	0.04924
4468.74163	0.04930
4466.81295	0.04935
4464.88427	0.04942
4462.95560	0.04953
4461.02692	0.04966
4459.09825	0.04976
4457.16957	0.04984
4455.24090	0.04991
4453.31222	0.04999
4451.38354	0.05007
4449.45487	0.05014
4447.52619	0.05021
4445.59752	0.05030
4443.66884	0.05038
4441.74017	0.05046
4439.81149	0.05055
4437.88281	0.05067
4435.95414	0.05079
4434.02546	0.05088
4432.09679	0.05096
4430.16811	0.05106
4428.23944	0.05117
4426.31076	0.05125
4424.38208	0.05133
4422.45341	0.05141
4420.52473	0.05148
4418.59606	0.05155
4416.66738	0.05164
4414.73871	0.05174
4412.81003	0.05182
4410.88135	0.05191
4408.95268	0.05200
4407.02400	0.05209
4405.09533	0.05217
4403.16665	0.05227
4401.23798	0.05240
4399.30930	0.05250
4397.38062	0.05258
4395.45195	0.05266
4393.52327	0.05274
4391.59460	0.05282
4389.66592	0.05291
4387.73725	0.05301
4385.80857	0.05313
4383.87989	0.05324
4381.95122	0.05335
4380.02254	0.05344
4378.09387	0.05352
4376.16519	0.05360
4374.23652	0.05368
4372.30784	0.05374
4370.37916	0.05382
4368.45049	0.05393
4366.52181	0.05405
4364.59314	0.05415
4362.66446	0.05425
4360.73579	0.05436
4358.80711	0.05445
4356.87843	0.05454
4354.94976	0.05462
4353.02108	0.05471
4351.09241	0.05482
4349.16373	0.05494
4347.23506	0.05505
4345.30638	0.05515
4343.37770	0.05525
4341.44903	0.05534
4339.52035	0.05543
4337.59168	0.05551
4335.66300	0.05561
4333.73433	0.05573
4331.80565	0.05585
4329.87697	0.05595
4327.94830	0.05603
4326.01962	0.05613
4324.09095	0.05624
4322.16227	0.05635
4320.23360	0.05645
4318.30492	0.05654
4316.37624	0.05664
4314.44757	0.05673
4312.51889	0.05682
4310.59022	0.05690
4308.66154	0.05700
4306.73287	0.05711
4304.80419	0.05722
4302.87551	0.05733
4300.94684	0.05745
4299.01816	0.05756
4297.08949	0.05767
4295.16081	0.05777
4293.23214	0.05787
4291.30346	0.05799
4289.37478	0.05812
4287.44611	0.05823
4285.51743	0.05833
4283.58876	0.05845
4281.66008	0.05857
4279.73141	0.05867
4277.80273	0.05875
4275.87405	0.05884
4273.94538	0.05894
4272.01670	0.05904
4270.08803	0.05913
4268.15935	0.05923
4266.23068	0.05935
4264.30200	0.05947
4262.37332	0.05958
4260.44465	0.05970
4258.51597	0.05982
4256.58730	0.05995
4254.65862	0.06008
4252.72995	0.06020
4250.80127	0.06029
4248.87259	0.06035
4246.94392	0.06044
4245.01524	0.06056
4243.08657	0.06068
4241.15789	0.06081
4239.22922	0.06094
4237.30054	0.06108
4235.37186	0.06118
4233.44319	0.06126
4231.51451	0.06135
4229.58584	0.06146
4227.65716	0.06159
4225.72849	0.06173
4223.79981	0.06184
4221.87113	0.06193
4219.94246	0.06203
4218.01378	0.06217
4216.08511	0.06230
4214.15643	0.06241
4212.22776	0.06250
4210.29908	0.06261
4208.37040	0.06274
4206.44173	0.06287
4204.51305	0.06299
4202.58438	0.06311
4200.65570	0.06323
4198.72703	0.06333
4196.79835	0.06345
4194.86968	0.06357
4192.94100	0.06370
4191.01232	0.06381
4189.08365	0.06393
4187.15497	0.06404
4185.22630	0.06417
4183.29762	0.06429
4181.36895	0.06440
4179.44027	0.06453
4177.51159	0.06466
4175.58292	0.06477
4173.65424	0.06488
4171.72557	0.06500
4169.79689	0.06513
4167.86822	0.06525
4165.93954	0.06536
4164.01086	0.06548
4162.08219	0.06561
4160.15351	0.06577
4158.22484	0.06590
4156.29616	0.06599
4154.36749	0.06610
4152.43881	0.06624
4150.51013	0.06637
4148.58146	0.06647
4146.65278	0.06659
4144.72411	0.06674
4142.79543	0.06688
4140.86676	0.06698
4138.93808	0.06709
4137.00940	0.06721
4135.08073	0.06735
4133.15205	0.06749
4131.22338	0.06761
4129.29470	0.06773
4127.36603	0.06786
4125.43735	0.06800
4123.50867	0.06814
4121.58000	0.06827
4119.65132	0.06839
4117.72265	0.06851
4115.79397	0.06863
4113.86530	0.06877
4111.93662	0.06893
4110.00794	0.06910
4108.07927	0.06922
4106.15059	0.06932
4104.22192	0.06942
4102.29324	0.06955
4100.36457	0.06968
4098.43589	0.06980
4096.50721	0.06994
4094.57854	0.07009
4092.64986	0.07024
4090.72119	0.07038
4088.79251	0.07053
4086.86384	0.07067
4084.93516	0.07078
4083.00648	0.07088
4081.07781	0.07100
4079.14913	0.07112
4077.22046	0.07126
4075.29178	0.07140
4073.36311	0.07154
4071.43443	0.07170
4069.50575	0.07185
4067.57708	0.07199
4065.64840	0.07212
4063.71973	0.07226
4061.79105	0.07239
4059.86238	0.07251
4057.93370	0.07264
4056.00502	0.07279
4054.07635	0.07294
4052.14767	0.07310
4050.21900	0.07323
4048.29032	0.07336
4046.36165	0.07350
4044.43297	0.07365
4042.50429	0.07380
4040.57562	0.07393
4038.64694	0.07405
4036.71827	0.07415
4034.78959	0.07426
4032.86092	0.07442
4030.93224	0.07459
4029.00356	0.07475
4027.07489	0.07491
4025.14621	0.07507
4023.21754	0.07521
4021.28886	0.07534
4019.36019	0.07547
4017.43151	0.07561
4015.50283	0.07576
4013.57416	0.07589
4011.64548	0.07603
4009.71681	0.07617
4007.78813	0.07631
4005.85946	0.07644
4003.93078	0.07658
4002.00210	0.07672
4000.07343	0.07686
3998.14475	0.07699
3996.21608	0.07714
3994.28740	0.07732
3992.35873	0.07750
3990.43005	0.07763
3988.50137	0.07776
3986.57270	0.07791
3984.64402	0.07807
3982.71535	0.07822
3980.78667	0.07838
3978.85800	0.07853
3976.92932	0.07867
3975.00064	0.07880
3973.07197	0.07895
3971.14329	0.07911
3969.21462	0.07926
3967.28594	0.07940
3965.35727	0.07955
3963.42859	0.07970
3961.49991	0.07986
3959.57124	0.08000
3957.64256	0.08015
3955.71389	0.08031
3953.78521	0.08047
3951.85654	0.08062
3949.92786	0.08076
3947.99918	0.08091
3946.07051	0.08106
3944.14183	0.08119
3942.21316	0.08134
3940.28448	0.08153
3938.35581	0.08170
3936.42713	0.08184
3934.49845	0.08196
3932.56978	0.08210
3930.64110	0.08229
3928.71243	0.08247
3926.78375	0.08263
3924.85508	0.08278
3922.92640	0.08292
3920.99772	0.08303
3919.06905	0.08315
3917.14037	0.08330
3915.21170	0.08348
3913.28302	0.08367
3911.35435	0.08388
3909.42567	0.08406
3907.49699	0.08419
3905.56832	0.08426
3903.63964	0.08436
3901.71097	0.08451
3899.78229	0.08472
3897.85362	0.08493
3895.92494	0.08510
3893.99626	0.08523
3892.06759	0.08535
3890.13891	0.08554
3888.21024	0.08571
3886.28156	0.08582
3884.35289	0.08596
3882.42421	0.08615
3880.49553	0.08635
3878.56686	0.08656
3876.63818	0.08673
3874.70951	0.08687
3872.78083	0.08698
3870.85216	0.08706
3868.92348	0.08723
3866.99480	0.08747
3865.06613	0.08767
3863.13745	0.08784
3861.20878	0.08801
3859.28010	0.08815
3857.35143	0.08820
3855.42275	0.08816
3853.49407	0.08822
3851.56540	0.08851
3849.63672	0.08887
3847.70805	0.08915
3845.77937	0.08936
3843.85070	0.08951
3841.92202	0.08962
3839.99334	0.08968
3838.06467	0.08980
3836.13599	0.09003
3834.20732	0.09028
3832.27864	0.09048
3830.34997	0.09067
3828.42129	0.09088
3826.49261	0.09106
3824.56394	0.09120
3822.63526	0.09129
3820.70659	0.09143
3818.77791	0.09159
3816.84924	0.09172
3814.92056	0.09191
3812.99188	0.09221
3811.06321	0.09246
3809.13453	0.09255
3807.20586	0.09263
3805.27718	0.09278
3803.34851	0.09293
3801.41983	0.09309
3799.49115	0.09336
3797.56248	0.09362
3795.63380	0.09384
3793.70513	0.09404
3791.77645	0.09422
3789.84778	0.09439
3787.91910	0.09453
3785.99042	0.09468
3784.06175	0.09485
3782.13307	0.09501
3780.20440	0.09519
3778.27572	0.09540
3776.34705	0.09561
3774.41837	0.09579
3772.48969	0.09591
3770.56102	0.09603
3768.63234	0.09617
3766.70367	0.09633
3764.77499	0.09651
3762.84632	0.09671
3760.91764	0.09688
3758.98896	0.09707
3757.06029	0.09727
3755.13161	0.09740
3753.20294	0.09742
3751.27426	0.09747
3749.34559	0.09766
3747.41691	0.09785
3745.48823	0.09794
3743.55956	0.09817
3741.63088	0.09855
3739.70221	0.09881
3737.77353	0.09889
3735.84486	0.09899
3733.91618	0.09918
3731.98750	0.09944
3730.05883	0.09974
3728.13015	0.09995
3726.20148	0.10008
3724.27280	0.10021
3722.34413	0.10037
3720.41545	0.10060
3718.48677	0.10084
3716.55810	0.10101
3714.62942	0.10111
3712.70075	0.10118
3710.77207	0.10134
3708.84340	0.10161
3706.91472	0.10188
3704.98604	0.10209
3703.05737	0.10224
3701.12869	0.10240
3699.20002	0.10259
3697.27134	0.10277
3695.34267	0.10294
3693.41399	0.10309
3691.48531	0.10317
3689.55664	0.10324
3687.62796	0.10345
3685.69929	0.10376
3683.77061	0.10403
3681.84194	0.10421
3679.91326	0.10433
3677.98458	0.10439
3676.05591	0.10447
3674.12723	0.10462
3672.19856	0.10477
3670.26988	0.10492
3668.34121	0.10519
3666.41253	0.10551
3664.48385	0.10576
3662.55518	0.10595
3660.62650	0.10611
3658.69783	0.10623
3656.76915	0.10634
3654.84048	0.10650
3652.91180	0.10656
3650.98312	0.10647
3649.05445	0.10639
3647.12577	0.10654
3645.19710	0.10688
3643.26842	0.10725
3641.33975	0.10756
3639.41107	0.10778
3637.48239	0.10795
3635.55372	0.10809
3633.62504	0.10819
3631.69637	0.10822
3629.76769	0.10827
3627.83902	0.10847
3625.91034	0.10878
3623.98166	0.10901
3622.05299	0.10910
3620.12431	0.10916
3618.19564	0.10929
3616.26696	0.10947
3614.33829	0.10961
3612.40961	0.10971
3610.48093	0.10980
3608.55226	0.10995
3606.62358	0.11018
3604.69491	0.11039
3602.76623	0.11054
3600.83756	0.11067
3598.90888	0.11081
3596.98020	0.11092
3595.05153	0.11105
3593.12285	0.11120
3591.19418	0.11132
3589.26550	0.11138
3587.33683	0.11149
3585.40815	0.11169
3583.47947	0.11189
3581.55080	0.11208
3579.62212	0.11227
3577.69345	0.11245
3575.76477	0.11259
3573.83610	0.11271
3571.90742	0.11282
3569.97874	0.11290
3568.05007	0.11299
3566.12139	0.11313
3564.19272	0.11335
3562.26404	0.11358
3560.33537	0.11376
3558.40669	0.11391
3556.47801	0.11405
3554.54934	0.11418
3552.62066	0.11430
3550.69199	0.11441
3548.76331	0.11452
3546.83464	0.11466
3544.90596	0.11482
3542.97728	0.11496
3541.04861	0.11509
3539.11993	0.11522
3537.19126	0.11533
3535.26258	0.11543
3533.33391	0.11553
3531.40523	0.11562
3529.47655	0.11571
3527.54788	0.11582
3525.61920	0.11589
3523.69053	0.11595
3521.76185	0.11602
3519.83318	0.11613
3517.90450	0.11622
3515.97582	0.11628
3514.04715	0.11632
3512.11847	0.11638
3510.18980	0.11649
3508.26112	0.11658
3506.33245	0.11664
3504.40377	0.11669
3502.47509	0.11676
3500.54642	0.11683
3498.61774	0.11687
3496.68907	0.11690
3494.76039	0.11696
3492.83172	0.11703
3490.90304	0.11710
3488.97436	0.11714
3487.04569	0.11718
3485.11701	0.11727
3483.18834	0.11736
3481.25966	0.11745
3479.33099	0.11758
3477.40231	0.11773
3475.47363	0.11787
3473.54496	0.11802
3471.61628	0.11817
3469.68761	0.11834
3467.75893	0.11852
3465.83026	0.11870
3463.90158	0.11891
3461.97290	0.11912
3460.04423	0.11933
3458.11555	0.11954
3456.18688	0.11974
3454.25820	0.11991
3452.32953	0.12008
3450.40085	0.12024
3448.47217	0.12041
3446.54350	0.12058
3444.61482	0.12077
3442.68615	0.12096
3440.75747	0.12119
3438.82880	0.12149
3436.90012	0.12181
3434.97144	0.12214
3433.04277	0.12250
3431.11409	0.12288
3429.18542	0.12326
3427.25674	0.12364
3425.32807	0.12404
3423.39939	0.12442
3421.47071	0.12478
3419.54204	0.12513
3417.61336	0.12547
3415.68469	0.12579
3413.75601	0.12609
3411.82734	0.12638
3409.89866	0.12663
3407.96998	0.12687
3406.04131	0.12713
3404.11263	0.12737
3402.18396	0.12760
3400.25528	0.12784
3398.32661	0.12808
3396.39793	0.12834
3394.46925	0.12862
3392.54058	0.12890
3390.61190	0.12919
3388.68323	0.12946
3386.75455	0.12972
3384.82588	0.12999
3382.89720	0.13023
3380.96852	0.13046
3379.03985	0.13069
3377.11117	0.13092
3375.18250	0.13115
3373.25382	0.13138
3371.32515	0.13163
3369.39647	0.13187
3367.46779	0.13211
3365.53912	0.13234
3363.61044	0.13258
3361.68177	0.13282
3359.75309	0.13304
3357.82442	0.13329
3355.89574	0.13354
3353.96706	0.13378
3352.03839	0.13402
3350.10971	0.13425
3348.18104	0.13448
3346.25236	0.13473
3344.32369	0.13501
3342.39501	0.13529
3340.46633	0.13553
3338.53766	0.13573
3336.60898	0.13593
3334.68031	0.13617
3332.75163	0.13641
3330.82296	0.13665
3328.89428	0.13690
3326.96560	0.13713
3325.03693	0.13736
3323.10825	0.13762
3321.17958	0.13787
3319.25090	0.13813
3317.32223	0.13838
3315.39355	0.13863
3313.46487	0.13886
3311.53620	0.13908
3309.60752	0.13931
3307.67885	0.13955
3305.75017	0.13978
3303.82150	0.14003
3301.89282	0.14031
3299.96414	0.14058
3298.03547	0.14083
3296.10679	0.14109
3294.17812	0.14135
3292.24944	0.14160
3290.32077	0.14185
3288.39209	0.14209
3286.46341	0.14233
3284.53474	0.14258
3282.60606	0.14283
3280.67739	0.14310
3278.74871	0.14337
3276.82004	0.14363
3274.89136	0.14389
3272.96268	0.14416
3271.03401	0.14444
3269.10533	0.14472
3267.17666	0.14497
3265.24798	0.14521
3263.31931	0.14545
3261.39063	0.14569
3259.46195	0.14595
3257.53328	0.14624
3255.60460	0.14651
3253.67593	0.14675
3251.74725	0.14702
3249.81858	0.14730
3247.88990	0.14757
3245.96122	0.14783
3244.03255	0.14809
3242.10387	0.14835
3240.17520	0.14862
3238.24652	0.14889
3236.31785	0.14915
3234.38917	0.14938
3232.46049	0.14964
3230.53182	0.14991
3228.60314	0.15018
3226.67447	0.15044
3224.74579	0.15069
3222.81712	0.15093
3220.88844	0.15118
3218.95976	0.15144
3217.03109	0.15169
3215.10241	0.15192
3213.17374	0.15217
3211.24506	0.15243
3209.31639	0.15270
3207.38771	0.15296
3205.45903	0.15324
3203.53036	0.15355
3201.60168	0.15386
3199.67301	0.15415
3197.74433	0.15443
3195.81566	0.15469
3193.88698	0.15496
3191.95830	0.15522
3190.02963	0.15551
3188.10095	0.15579
3186.17228	0.15605
3184.24360	0.15629
3182.31493	0.15656
3180.38625	0.15687
3178.45757	0.15718
3176.52890	0.15746
3174.60022	0.15771
3172.67155	0.15796
3170.74287	0.15823
3168.81420	0.15852
3166.88552	0.15879
3164.95684	0.15902
3163.02817	0.15928
3161.09949	0.15959
3159.17082	0.15991
3157.24214	0.16018
3155.31347	0.16042
3153.38479	0.16069
3151.45611	0.16097
3149.52744	0.16123
3147.59876	0.16148
3145.67009	0.16174
3143.74141	0.16201
3141.81274	0.16229
3139.88406	0.16258
3137.95538	0.16285
3136.02671	0.16311
3134.09803	0.16336
3132.16936	0.16360
3130.24068	0.16387
3128.31201	0.16415
3126.38333	0.16443
3124.45465	0.16470
3122.52598	0.16495
3120.59730	0.16524
3118.66863	0.16556
3116.73995	0.16585
3114.81128	0.16609
3112.88260	0.16635
3110.95392	0.16662
3109.02525	0.16688
3107.09657	0.16716
3105.16790	0.16745
3103.23922	0.16773
3101.31055	0.16800
3099.38187	0.16825
3097.45319	0.16848
3095.52452	0.16873
3093.59584	0.16900
3091.66717	0.16929
3089.73849	0.16958
3087.80982	0.16985
3085.88114	0.17013
3083.95246	0.17042
3082.02379	0.17069
3080.09511	0.17092
3078.16644	0.17117
3076.23776	0.17145
3074.30909	0.17172
3072.38041	0.17197
3070.45173	0.17223
3068.52306	0.17253
3066.59438	0.17286
3064.66571	0.17315
3062.73703	0.17343
3060.80836	0.17370
3058.87968	0.17398
3056.95100	0.17421
3055.02233	0.17443
3053.09365	0.17468
3051.16498	0.17495
3049.23630	0.17521
3047.30763	0.17545
3045.37895	0.17572
3043.45027	0.17602
3041.52160	0.17629
3039.59292	0.17652
3037.66425	0.17674
3035.73557	0.17699
3033.80690	0.17727
3031.87822	0.17756
3029.94954	0.17786
3028.02087	0.17814
3026.09219	0.17841
3024.16352	0.17868
3022.23484	0.17899
3020.30617	0.17927
3018.37749	0.17950
3016.44881	0.17971
3014.52014	0.17997
3012.59146	0.18026
3010.66279	0.18056
3008.73411	0.18086
3006.80544	0.18114
3004.87676	0.18137
3002.94808	0.18160
3001.01941	0.18190
2999.09073	0.18221
2997.16206	0.18246
2995.23338	0.18270
2993.30471	0.18295
2991.37603	0.18323
2989.44735	0.18347
2987.51868	0.18364
2985.59000	0.18380
2983.66133	0.18398
2981.73265	0.18414
2979.80398	0.18426
2977.87530	0.18436
2975.94662	0.18446
2974.01795	0.18451
2972.08927	0.18451
2970.16060	0.18446
2968.23192	0.18444
2966.30325	0.18449
2964.37457	0.18461
2962.44589	0.18478
2960.51722	0.18502
2958.58854	0.18532
2956.65987	0.18565
2954.73119	0.18599
2952.80252	0.18635
2950.87384	0.18673
2948.94516	0.18706
2947.01649	0.18730
2945.08781	0.18745
2943.15914	0.18757
2941.23046	0.18766
2939.30179	0.18772
2937.37311	0.18772
2935.44443	0.18769
2933.51576	0.18767
2931.58708	0.18764
2929.65841	0.18757
2927.72973	0.18751
2925.80106	0.18749
2923.87238	0.18750
2921.94370	0.18755
2920.01503	0.18766
2918.08635	0.18792
2916.15768	0.18847
2914.22900	0.18933
2912.30033	0.19029
2910.37165	0.19110
2908.44297	0.19176
2906.51430	0.19233
2904.58562	0.19284
2902.65695	0.19330
2900.72827	0.19370
2898.79960	0.19408
2896.87092	0.19446
2894.94224	0.19486
2893.01357	0.19526
2891.08489	0.19563
2889.15622	0.19598
2887.22754	0.19631
2885.29887	0.19663
2883.37019	0.19692
2881.44151	0.19719
2879.51284	0.19744
2877.58416	0.19769
2875.65549	0.19797
2873.72681	0.19826
2871.79814	0.19852
2869.86946	0.19879
2867.94078	0.19904
2866.01211	0.19923
2864.08343	0.19939
2862.15476	0.19952
2860.22608	0.19964
2858.29741	0.19970
2856.36873	0.19968
2854.44005	0.19962
2852.51138	0.19959
2850.58270	0.19977
2848.65403	0.20029
2846.72535	0.20112
2844.79668	0.20204
2842.86800	0.20287
2840.93932	0.20354
2839.01065	0.20405
2837.08197	0.20447
2835.15330	0.20487
2833.22462	0.20524
2831.29595	0.20557
2829.36727	0.20589
2827.43859	0.20623
2825.50992	0.20656
2823.58124	0.20687
2821.65257	0.20718
2819.72389	0.20749
2817.79522	0.20781
2815.86654	0.20813
2813.93786	0.20847
2812.00919	0.20878
2810.08051	0.20904
2808.15184	0.20929
2806.22316	0.20956
2804.29449	0.20985
2802.36581	0.21019
2800.43713	0.21055
2798.50846	0.21084
2796.57978	0.21108
2794.65111	0.21137
2792.72243	0.21169
2790.79376	0.21200
2788.86508	0.21230
2786.93640	0.21260
2785.00773	0.21288
2783.07905	0.21314
2781.15038	0.21345
2779.22170	0.21380
2777.29303	0.21412
2775.36435	0.21439
2773.43567	0.21464
2771.50700	0.21490
2769.57832	0.21518
2767.64965	0.21549
2765.72097	0.21580
2763.79230	0.21610
2761.86362	0.21639
2759.93494	0.21668
2758.00627	0.21699
2756.07759	0.21729
2754.14892	0.21755
2752.22024	0.21779
2750.29157	0.21803
2748.36289	0.21830
2746.43421	0.21859
2744.50554	0.21891
2742.57686	0.21921
2740.64819	0.21949
2738.71951	0.21978
2736.79084	0.22007
2734.86216	0.22035
2732.93348	0.22063
2731.00481	0.22090
2729.07613	0.22118
2727.14746	0.22146
2725.21878	0.22174
2723.29011	0.22202
2721.36143	0.22231
2719.43275	0.22260
2717.50408	0.22287
2715.57540	0.22315
2713.64673	0.22344
2711.71805	0.22373
2709.78938	0.22400
2707.86070	0.22430
2705.93202	0.22460
2704.00335	0.22488
2702.07467	0.22516
2700.14600	0.22544
2698.21732	0.22572
2696.28865	0.22597
2694.35997	0.22623
2692.43129	0.22649
2690.50262	0.22675
2688.57394	0.22705
2686.64527	0.22735
2684.71659	0.22765
2682.78792	0.22793
2680.85924	0.22821
2678.93056	0.22846
2677.00189	0.22869
2675.07321	0.22894
2673.14454	0.22925
2671.21586	0.22955
2669.28719	0.22981
2667.35851	0.23008
2665.42983	0.23038
2663.50116	0.23066
2661.57248	0.23094
2659.64381	0.23124
2657.71513	0.23155
2655.78646	0.23186
2653.85778	0.23216
2651.92910	0.23245
2650.00043	0.23274
2648.07175	0.23303
2646.14308	0.23331
2644.21440	0.23357
2642.28573	0.23384
2640.35705	0.23415
2638.42837	0.23448
2636.49970	0.23480
2634.57102	0.23510
2632.64235	0.23541
2630.71367	0.23572
2628.78500	0.23601
2626.85632	0.23627
2624.92764	0.23656
2622.99897	0.23688
2621.07029	0.23719
2619.14162	0.23750
2617.21294	0.23780
2615.28427	0.23811
2613.35559	0.23844
2611.42691	0.23878
2609.49824	0.23906
2607.56956	0.23933
2605.64089	0.23962
2603.71221	0.23993
2601.78354	0.24022
2599.85486	0.24051
2597.92618	0.24083
2595.99751	0.24117
2594.06883	0.24149
2592.14016	0.24181
2590.21148	0.24212
2588.28281	0.24242
2586.35413	0.24271
2584.42545	0.24300
2582.49678	0.24326
2580.56810	0.24353
2578.63943	0.24381
2576.71075	0.24410
2574.78208	0.24438
2572.85340	0.24466
2570.92472	0.24493
2568.99605	0.24523
2567.06737	0.24555
2565.13870	0.24586
2563.21002	0.24618
2561.28135	0.24647
2559.35267	0.24674
2557.42399	0.24698
2555.49532	0.24723
2553.56664	0.24751
2551.63797	0.24780
2549.70929	0.24808
2547.78062	0.24838
2545.85194	0.24871
2543.92326	0.24902
2541.99459	0.24930
2540.06591	0.24958
2538.13724	0.24987
2536.20856	0.25014
2534.27989	0.25045
2532.35121	0.25079
2530.42253	0.25113
2528.49386	0.25142
2526.56518	0.25168
2524.63651	0.25195
2522.70783	0.25224
2520.77916	0.25254
2518.85048	0.25286
2516.92181	0.25318
2514.99313	0.25347
2513.06445	0.25374
2511.13578	0.25404
2509.20710	0.25437
2507.27843	0.25472
2505.34975	0.25507
2503.42108	0.25541
2501.49240	0.25572
2499.56372	0.25602
2497.63505	0.25631
2495.70637	0.25667
2493.77770	0.25704
2491.84902	0.25736
2489.92035	0.25765
2487.99167	0.25794
2486.06299	0.25827
2484.13432	0.25862
2482.20564	0.25896
2480.27697	0.25929
2478.34829	0.25963
2476.41962	0.25995
2474.49094	0.26026
2472.56226	0.26056
2470.63359	0.26086
2468.70491	0.26113
2466.77624	0.26141
2464.84756	0.26172
2462.91889	0.26203
2460.99021	0.26232
2459.06153	0.26264
2457.13286	0.26296
2455.20418	0.26326
2453.27551	0.26361
2451.34683	0.26399
2449.41816	0.26435
2447.48948	0.26465
2445.56080	0.26491
2443.63213	0.26518
2441.70345	0.26547
2439.77478	0.26579
2437.84610	0.26613
2435.91743	0.26647
2433.98875	0.26681
2432.06007	0.26711
2430.13140	0.26738
2428.20272	0.26767
2426.27405	0.26800
2424.34537	0.26833
2422.41670	0.26862
2420.48802	0.26890
2418.55934	0.26922
2416.63067	0.26954
2414.70199	0.26984
2412.77332	0.27015
2410.84464	0.27048
2408.91597	0.27077
2406.98729	0.27105
2405.05861	0.27137
2403.12994	0.27168
2401.20126	0.27199
2399.27259	0.27232
2397.34391	0.27266
2395.41524	0.27299
2393.48656	0.27331
2391.55788	0.27359
2389.62921	0.27384
2387.70053	0.27411
2385.77186	0.27441
2383.84318	0.27466
2381.91451	0.27488
2379.98583	0.27509
2378.05715	0.27526
2376.12848	0.27536
2374.19980	0.27541
2372.27113	0.27546
2370.34245	0.27555
2368.41378	0.27567
2366.48510	0.27584
2364.55642	0.27607
2362.62775	0.27632
2360.69907	0.27660
2358.77040	0.27695
2356.84172	0.27737
2354.91305	0.27788
2352.98437	0.27847
2351.05569	0.27909
2349.12702	0.27953
2347.19834	0.27972
2345.26967	0.27979
2343.34099	0.27990
2341.41232	0.28010
2339.48364	0.28035
2337.55496	0.28061
2335.62629	0.28088
2333.69761	0.28120
2331.76894	0.28154
2329.84026	0.28190
2327.91159	0.28229
2325.98291	0.28270
2324.05423	0.28311
2322.12556	0.28353
2320.19688	0.28396
2318.26821	0.28441
2316.33953	0.28486
2314.41086	0.28527
2312.48218	0.28563
2310.55350	0.28600
2308.62483	0.28637
2306.69615	0.28674
2304.76748	0.28714
2302.83880	0.28750
2300.91013	0.28778
2298.98145	0.28804
2297.05277	0.28836
2295.12410	0.28873
2293.19542	0.28909
2291.26675	0.28941
2289.33807	0.28973
2287.40940	0.29005
2285.48072	0.29040
2283.55204	0.29076
2281.62337	0.29108
2279.69469	0.29136
2277.76602	0.29162
2275.83734	0.29190
2273.90867	0.29219
2271.97999	0.29250
2270.05131	0.29281
2268.12264	0.29311
2266.19396	0.29341
2264.26529	0.29373
2262.33661	0.29407
2260.40794	0.29439
2258.47926	0.29469
2256.55058	0.29498
2254.62191	0.29529
2252.69323	0.29563
2250.76456	0.29595
2248.83588	0.29625
2246.90721	0.29658
2244.97853	0.29691
2243.04985	0.29721
2241.12118	0.29750
2239.19250	0.29781
2237.26383	0.29812
2235.33515	0.29843
2233.40648	0.29874
2231.47780	0.29905
2229.54912	0.29934
2227.62045	0.29963
2225.69177	0.29994
2223.76310	0.30026
2221.83442	0.30058
2219.90575	0.30089
2217.97707	0.30119
2216.04839	0.30151
2214.11972	0.30184
2212.19104	0.30212
2210.26237	0.30238
2208.33369	0.30266
2206.40502	0.30296
2204.47634	0.30325
2202.54766	0.30353
2200.61899	0.30383
2198.69031	0.30415
2196.76164	0.30446
2194.83296	0.30478
2192.90429	0.30509
2190.97561	0.30541
2189.04693	0.30573
2187.11826	0.30604
2185.18958	0.30630
2183.26091	0.30657
2181.33223	0.30688
2179.40356	0.30723
2177.47488	0.30756
2175.54620	0.30788
2173.61753	0.30817
2171.68885	0.30845
2169.76018	0.30873
2167.83150	0.30901
2165.90283	0.30933
2163.97415	0.30970
2162.04547	0.31010
2160.11680	0.31046
2158.18812	0.31075
2156.25945	0.31101
2154.33077	0.31129
2152.40210	0.31160
2150.47342	0.31192
2148.54474	0.31224
2146.61607	0.31259
2144.68739	0.31294
2142.75872	0.31327
2140.83004	0.31359
2138.90137	0.31389
2136.97269	0.31418
2135.04401	0.31446
2133.11534	0.31474
2131.18666	0.31506
2129.25799	0.31540
2127.32931	0.31574
2125.40064	0.31604
2123.47196	0.31629
2121.54328	0.31657
2119.61461	0.31691
2117.68593	0.31726
2115.75726	0.31759
2113.82858	0.31792
2111.89991	0.31821
2109.97123	0.31850
2108.04255	0.31881
2106.11388	0.31914
2104.18520	0.31948
2102.25653	0.31986
2100.32785	0.32020
2098.39918	0.32050
2096.47050	0.32080
2094.54182	0.32110
2092.61315	0.32138
2090.68447	0.32167
2088.75580	0.32201
2086.82712	0.32237
2084.89845	0.32268
2082.96977	0.32297
2081.04109	0.32325
2079.11242	0.32353
2077.18374	0.32386
2075.25507	0.32423
2073.32639	0.32459
2071.39772	0.32487
2069.46904	0.32511
2067.54036	0.32541
2065.61169	0.32576
2063.68301	0.32611
2061.75434	0.32644
2059.82566	0.32674
2057.89699	0.32702
2055.96831	0.32729
2054.03963	0.32755
2052.11096	0.32787
2050.18228	0.32824
2048.25361	0.32857
2046.32493	0.32888
2044.39626	0.32920
2042.46758	0.32955
2040.53890	0.32989
2038.61023	0.33020
2036.68155	0.33050
2034.75288	0.33082
2032.82420	0.33112
2030.89553	0.33140
2028.96685	0.33172
2027.03817	0.33209
2025.10950	0.33243
2023.18082	0.33275
2021.25215	0.33306
2019.32347	0.33336
2017.39480	0.33368
2015.46612	0.33403
2013.53744	0.33437
2011.60877	0.33468
2009.68009	0.33496
2007.75142	0.33527
2005.82274	0.33559
2003.89407	0.33589
2001.96539	0.33617
2000.03671	0.33648
1998.10804	0.33681
1996.17936	0.33710
1994.25069	0.33734
1992.32201	0.33761
1990.39334	0.33790
1988.46466	0.33822
1986.53598	0.33856
1984.60731	0.33891
1982.67863	0.33919
1980.74996	0.33941
1978.82128	0.33963
1976.89261	0.33990
1974.96393	0.34016
1973.03525	0.34042
1971.10658	0.34068
1969.17790	0.34095
1967.24923	0.34124
1965.32055	0.34152
1963.39188	0.34178
1961.46320	0.34204
1959.53452	0.34231
1957.60585	0.34262
1955.67717	0.34294
1953.74850	0.34327
1951.81982	0.34359
1949.89115	0.34391
1947.96247	0.34424
1946.03379	0.34456
1944.10512	0.34485
1942.17644	0.34516
1940.24777	0.34548
1938.31909	0.34579
1936.39042	0.34609
1934.46174	0.34640
1932.53306	0.34670
1930.60439	0.34697
1928.67571	0.34729
1926.74704	0.34765
1924.81836	0.34796
1922.88969	0.34825
1920.96101	0.34853
1919.03233	0.34880
1917.10366	0.34910
1915.17498	0.34946
1913.24631	0.34977
1911.31763	0.35003
1909.38896	0.35033
1907.46028	0.35065
1905.53160	0.35096
1903.60293	0.35127
1901.67425	0.35160
1899.74558	0.35191
1897.81690	0.35219
1895.88823	0.35245
1893.95955	0.35273
1892.03087	0.35300
1890.10220	0.35327
1888.17352	0.35355
1886.24485	0.35385
1884.31617	0.35416
1882.38750	0.35449
1880.45882	0.35481
1878.53014	0.35511
1876.60147	0.35539
1874.67279	0.35569
1872.74412	0.35594
1870.81544	0.35609
1868.88677	0.35630
1866.95809	0.35671
1865.02941	0.35719
1863.10074	0.35762
1861.17206	0.35799
1859.24339	0.35833
1857.31471	0.35865
1855.38604	0.35895
1853.45736	0.35922
1851.52868	0.35948
1849.60001	0.35976
1847.67133	0.36000
1845.74266	0.36016
1843.81398	0.36044
1841.88531	0.36093
1839.95663	0.36138
1838.02795	0.36168
1836.09928	0.36195
1834.17060	0.36222
1832.24193	0.36245
1830.31325	0.36267
1828.38458	0.36294
1826.45590	0.36323
1824.52722	0.36360
1822.59855	0.36403
1820.66987	0.36441
1818.74120	0.36469
1816.81252	0.36497
1814.88385	0.36524
1812.95517	0.36545
1811.02649	0.36568
1809.09782	0.36598
1807.16914	0.36632
1805.24047	0.36659
1803.31179	0.36677
1801.38312	0.36695
1799.45444	0.36726
1797.52576	0.36759
1795.59709	0.36772
1793.66841	0.36772
1791.73974	0.36791
1789.81106	0.36834
1787.88239	0.36871
1785.95371	0.36892
1784.02503	0.36914
1782.09636	0.36940
1780.16768	0.36967
1778.23901	0.36993
1776.31033	0.37005
1774.38166	0.36994
1772.45298	0.36996
1770.52430	0.37030
1768.59563	0.37075
1766.66695	0.37113
1764.73828	0.37138
1762.80960	0.37147
1760.88093	0.37161
1758.95225	0.37183
1757.02357	0.37199
1755.09490	0.37207
1753.16622	0.37197
1751.23755	0.37181
1749.30887	0.37188
1747.38020	0.37211
1745.45152	0.37230
1743.52284	0.37238
1741.59417	0.37239
1739.66549	0.37244
1737.73682	0.37243
1735.80814	0.37219
1733.87947	0.37218
1731.95079	0.37276
1730.02211	0.37351
1728.09344	0.37406
1726.16476	0.37444
1724.23609	0.37471
1722.30741	0.37492
1720.37874	0.37491
1718.45006	0.37476
1716.52138	0.37495
1714.59271	0.37556
1712.66403	0.37614
1710.73536	0.37643
1708.80668	0.37649
1706.87801	0.37644
1704.94933	0.37639
1703.02065	0.37616
1701.09198	0.37581
1699.16330	0.37580
1697.23463	0.37604
1695.30595	0.37636
1693.37728	0.37686
1691.44860	0.37719
1689.51992	0.37716
1687.59125	0.37687
1685.66257	0.37641
1683.73390	0.37635
1681.80522	0.37688
1679.87655	0.37739
1677.94787	0.37750
1676.01919	0.37742
1674.09052	0.37750
1672.16184	0.37760
1670.23317	0.37758
1668.30449	0.37779
1666.37582	0.37816
1664.44714	0.37827
1662.51846	0.37828
1660.58979	0.37845
1658.66111	0.37857
1656.73244	0.37823
1654.80376	0.37745
1652.87509	0.37716
1650.94641	0.37774
1649.01773	0.37822
1647.08906	0.37826
1645.16038	0.37857
1643.23171	0.37915
1641.30303	0.37951
1639.37436	0.37946
1637.44568	0.37911
1635.51700	0.37903
1633.58833	0.37951
1631.65965	0.37998
1629.73098	0.38003
1627.80230	0.37987
1625.87363	0.37957
1623.94495	0.37899
1622.01627	0.37839
1620.08760	0.37817
1618.15892	0.37855
1616.23025	0.37960
1614.30157	0.38098
1612.37290	0.38207
1610.44422	0.38274
1608.51554	0.38322
1606.58687	0.38366
1604.65819	0.38406
1602.72952	0.38448
1600.80084	0.38489
1598.87217	0.38524
1596.94349	0.38552
1595.01481	0.38578
1593.08614	0.38604
1591.15746	0.38635
1589.22879	0.38669
1587.30011	0.38698
1585.37144	0.38726
1583.44276	0.38758
1581.51408	0.38787
1579.58541	0.38798
1577.65673	0.38785
1575.72806	0.38796
1573.79938	0.38848
1571.87071	0.38884
1569.94203	0.38895
1568.01335	0.38928
1566.08468	0.38974
1564.15600	0.39000
1562.22733	0.38974
1560.29865	0.38921
1558.36998	0.38930
1556.44130	0.39016
1554.51262	0.39103
1552.58395	0.39158
1550.65527	0.39194
1548.72660	0.39217
1546.79792	0.39221
1544.86925	0.39202
1542.94057	0.39166
1541.01189	0.39142
1539.08322	0.39177
1537.15454	0.39256
1535.22587	0.39303
1533.29719	0.39320
1531.36852	0.39349
1529.43984	0.39375
1527.51116	0.39384
1525.58249	0.39384
1523.65381	0.39369
1521.72514	0.39355
1519.79646	0.39379
1517.86779	0.39425
1515.93911	0.39466
1514.01043	0.39498
1512.08176	0.39514
1510.15308	0.39497
1508.22441	0.39456
1506.29573	0.39459
1504.36706	0.39538
1502.43838	0.39612
1500.50970	0.39625
1498.58103	0.39607
1496.65235	0.39606
1494.72368	0.39631
1492.79500	0.39649
1490.86633	0.39649
1488.93765	0.39657
1487.00897	0.39678
1485.08030	0.39700
1483.15162	0.39714
1481.22295	0.39720
1479.29427	0.39711
1477.36560	0.39679
1475.43692	0.39628
1473.50824	0.39577
1471.57957	0.39555
1469.65089	0.39558
1467.72222	0.39554
1465.79354	0.39543
1463.86487	0.39554
1461.93619	0.39571
1460.00751	0.39547
1458.07884	0.39501
1456.15016	0.39514
1454.22149	0.39585
1452.29281	0.39639
1450.36414	0.39656
1448.43546	0.39665
1446.50678	0.39685
1444.57811	0.39713
1442.64943	0.39736
1440.72076	0.39742
1438.79208	0.39720
1436.86341	0.39699
1434.93473	0.39714
1433.00605	0.39740
1431.07738	0.39748
1429.14870	0.39753
1427.22003	0.39757
1425.29135	0.39750
1423.36268	0.39729
1421.43400	0.39688
1419.50532	0.39651
1417.57665	0.39653
1415.64797	0.39678
1413.71930	0.39688
1411.79062	0.39685
1409.86195	0.39681
1407.93327	0.39674
1406.00459	0.39667
1404.07592	0.39662
1402.14724	0.39657
1400.21857	0.39643
1398.28989	0.39628
1396.36122	0.39619
1394.43254	0.39619
1392.50386	0.39622
1390.57519	0.39603
1388.64651	0.39549
1386.71784	0.39482
1384.78916	0.39438
1382.86049	0.39432
1380.93181	0.39451
1379.00313	0.39466
1377.07446	0.39462
1375.14578	0.39447
1373.21711	0.39444
1371.28843	0.39451
1369.35976	0.39448
1367.43108	0.39434
1365.50240	0.39417
1363.57373	0.39402
1361.64505	0.39399
1359.71638	0.39404
1357.78770	0.39408
1355.85903	0.39410
1353.93035	0.39419
1352.00167	0.39433
1350.07300	0.39447
1348.14432	0.39462
1346.21565	0.39475
1344.28697	0.39482
1342.35830	0.39481
1340.42962	0.39477
1338.50094	0.39471
1336.57227	0.39467
1334.64359	0.39466
1332.71492	0.39464
1330.78624	0.39458
1328.85757	0.39448
1326.92889	0.39436
1325.00021	0.39420
1323.07154	0.39404
1321.14286	0.39393
1319.21419	0.39382
1317.28551	0.39369
1315.35684	0.39355
1313.42816	0.39334
1311.49948	0.39304
1309.57081	0.39273
1307.64213	0.39244
1305.71346	0.39215
1303.78478	0.39180
1301.85611	0.39138
1299.92743	0.39096
1297.99875	0.39056
1296.07008	0.39014
1294.14140	0.38972
1292.21273	0.38933
1290.28405	0.38894
1288.35538	0.38848
1286.42670	0.38796
1284.49802	0.38739
1282.56935	0.38682
1280.64067	0.38623
1278.71200	0.38553
1276.78332	0.38470
1274.85465	0.38376
1272.92597	0.38267
1270.99729	0.38130
1269.06862	0.37955
1267.13994	0.37756
1265.21127	0.37575
1263.28259	0.37450
1261.35392	0.37393
1259.42524	0.37390
1257.49656	0.37412
1255.56789	0.37428
1253.63921	0.37422
1251.71054	0.37390
1249.78186	0.37334
1247.85319	0.37265
1245.92451	0.37194
1243.99583	0.37121
1242.06716	0.37037
1240.13848	0.36939
1238.20981	0.36835
1236.28113	0.36733
1234.35246	0.36627
1232.42378	0.36518
1230.49510	0.36412
1228.56643	0.36314
1226.63775	0.36217
1224.70908	0.36117
1222.78040	0.36018
1220.85173	0.35924
1218.92305	0.35834
1216.99437	0.35742
1215.06570	0.35643
1213.13702	0.35542
1211.20835	0.35446
1209.27967	0.35353
1207.35100	0.35259
1205.42232	0.35162
1203.49364	0.35063
1201.56497	0.34966
1199.63629	0.34877
1197.70762	0.34791
1195.77894	0.34698
1193.85027	0.34597
1191.92159	0.34494
1189.99291	0.34389
1188.06424	0.34277
1186.13556	0.34154
1184.20689	0.34023
1182.27821	0.33888
1180.34954	0.33753
1178.42086	0.33620
1176.49218	0.33486
1174.56351	0.33345
1172.63483	0.33198
1170.70616	0.33048
1168.77748	0.32897
1166.84881	0.32747
1164.92013	0.32598
1162.99145	0.32452
1161.06278	0.32309
1159.13410	0.32175
1157.20543	0.32046
1155.27675	0.31917
1153.34808	0.31790
1151.41940	0.31669
1149.49072	0.31552
1147.56205	0.31439
1145.63337	0.31327
1143.70470	0.31208
1141.77602	0.31081
1139.84735	0.30953
1137.91867	0.30829
1135.98999	0.30704
1134.06132	0.30581
1132.13264	0.30458
1130.20397	0.30327
1128.27529	0.30182
1126.34662	0.30027
1124.41794	0.29869
1122.48926	0.29710
1120.56059	0.29555
1118.63191	0.29398
1116.70324	0.29236
1114.77456	0.29077
1112.84589	0.28925
1110.91721	0.28770
1108.98853	0.28609
1107.05986	0.28454
1105.13118	0.28307
1103.20251	0.28163
1101.27383	0.28019
1099.34516	0.27876
1097.41648	0.27739
1095.48780	0.27606
1093.55913	0.27477
1091.63045	0.27352
1089.70178	0.27233
1087.77310	0.27122
1085.84443	0.27016
1083.91575	0.26912
1081.98707	0.26806
1080.05840	0.26699
1078.12972	0.26603
1076.20105	0.26522
1074.27237	0.26451
1072.34370	0.26389
1070.41502	0.26341
1068.48634	0.26303
1066.55767	0.26275
1064.62899	0.26265
1062.70032	0.26270
1060.77164	0.26283
1058.84297	0.26302
1056.91429	0.26331
1054.98561	0.26369
1053.05694	0.26410
1051.12826	0.26454
1049.19959	0.26505
1047.27091	0.26565
1045.34224	0.26630
1043.41356	0.26698
1041.48488	0.26770
1039.55621	0.26847
1037.62753	0.26926
1035.69886	0.27008
1033.77018	0.27094
1031.84151	0.27178
1029.91283	0.27258
1027.98415	0.27341
1026.05548	0.27423
1024.12680	0.27503
1022.19813	0.27589
1020.26945	0.27686
1018.34078	0.27793
1016.41210	0.27905
1014.48342	0.28022
1012.55475	0.28146
1010.62607	0.28285
1008.69740	0.28433
1006.76872	0.28576
1004.84005	0.28706
1002.91137	0.28822
1000.98269	0.28922
999.05402	0.29015
997.12534	0.29102
995.19667	0.29177
993.26799	0.29240
991.33932	0.29297
989.41064	0.29358
987.48196	0.29424
985.55329	0.29486
983.62461	0.29537
981.69594	0.29583
979.76726	0.29617
977.83859	0.29631
975.90991	0.29634
973.98123	0.29639
972.05256	0.29649
970.12388	0.29654
968.19521	0.29644
966.26653	0.29624
964.33786	0.29604
962.40918	0.29579
960.48050	0.29545
958.55183	0.29508
956.62315	0.29475
954.69448	0.29446
952.76580	0.29412
950.83713	0.29366
948.90845	0.29312
946.97977	0.29258
945.05110	0.29205
943.12242	0.29149
941.19375	0.29084
939.26507	0.29011
937.33640	0.28939
935.40772	0.28866
933.47904	0.28797
931.55037	0.28737
929.62169	0.28681
927.69302	0.28623
925.76434	0.28564
923.83567	0.28499
921.90699	0.28428
919.97831	0.28353
918.04964	0.28272
916.12096	0.28187
914.19229	0.28104
912.26361	0.28020
910.33494	0.27935
908.40626	0.27856
906.47758	0.27775
904.54891	0.27687
902.62023	0.27597
900.69156	0.27507
898.76288	0.27412
896.83421	0.27314
894.90553	0.27223
892.97685	0.27135
891.04818	0.27045
889.11950	0.26949
887.19083	0.26855
885.26215	0.26768
883.33348	0.26685
881.40480	0.26600
879.47612	0.26515
877.54745	0.26436
875.61877	0.26361
873.69010	0.26288
871.76142	0.26215
869.83275	0.26138
867.90407	0.26052
865.97539	0.25961
864.04672	0.25871
862.11804	0.25783
860.18937	0.25692
858.26069	0.25595
856.33202	0.25495
854.40334	0.25398
852.47466	0.25302
850.54599	0.25207
848.61731	0.25116
846.68864	0.25026
844.75996	0.24934
842.83129	0.24845
840.90261	0.24758
838.97394	0.24670
837.04526	0.24579
835.11658	0.24479
833.18791	0.24370
831.25923	0.24258
829.33056	0.24142
827.40188	0.24018
825.47321	0.23891
823.54453	0.23769
821.61585	0.23663
819.68718	0.23576
817.75850	0.23490
815.82983	0.23388
813.90115	0.23276
811.97248	0.23164
810.04380	0.23059
808.11512	0.22960
806.18645	0.22866
804.25777	0.22780
802.32910	0.22703
800.40042	0.22638
798.47175	0.22581
796.54307	0.22532
794.61439	0.22495
792.68572	0.22468
790.75704	0.22437
788.82837	0.22400
786.89969	0.22367
784.97102	0.22332
783.04234	0.22284
781.11366	0.22231
779.18499	0.22180
777.25631	0.22135
775.32764	0.22094
773.39896	0.22046
771.47029	0.21986
769.54161	0.21920
767.61293	0.21853
765.68426	0.21782
763.75558	0.21713
761.82691	0.21644
759.89823	0.21570
757.96956	0.21490
756.04088	0.21407
754.11220	0.21323
752.18353	0.21239
750.25485	0.21152
748.32618	0.21054
746.39750	0.20953
744.46883	0.20859
742.54015	0.20767
740.61147	0.20670
738.68280	0.20578
736.75412	0.20495
734.82545	0.20414
732.89677	0.20337
730.96810	0.20268
729.03942	0.20200
727.11074	0.20127
725.18207	0.20048
723.25339	0.19971
721.32472	0.19899
719.39604	0.19824
717.46737	0.19743
715.53869	0.19663
713.61001	0.19583
711.68134	0.19498
709.75266	0.19412
707.82399	0.19325
705.89531	0.19240
703.96664	0.19162
702.03796	0.19083
700.10928	0.18998
698.18061	0.18916
696.25193	0.18840
694.32326	0.18763
692.39458	0.18677
690.46591	0.18584
688.53723	0.18491
686.60855	0.18401
684.67988	0.18313
682.75120	0.18221
680.82253	0.18112
678.89385	0.17991
676.96518	0.17863
675.03650	0.17733
673.10782	0.17605
671.17915	0.17461
669.25047	0.17289
667.32180	0.17122
665.39312	0.16980
663.46445	0.16839
661.53577	0.16684
659.60709	0.16519
657.67842	0.16356
655.74974	0.16204
653.82107	0.16061
651.89239	0.15919
649.96372	0.15769
648.03504	0.15605
646.10636	0.15433
644.17769	0.15258
642.24901	0.15082
640.32034	0.14904
638.39166	0.14721
636.46299	0.14530
634.53431	0.14339
632.60563	0.14159
630.67696	0.13987
628.74828	0.13808
626.81961	0.13626
624.89093	0.13450
622.96226	0.13282
621.03358	0.13116
619.10490	0.12943
617.17623	0.12763
615.24755	0.12577
613.31888	0.12389
611.39020	0.12207
609.46153	0.12034
607.53285	0.11861
605.60417	0.11687
603.67550	0.11522
601.74682	0.11369
599.81815	0.11221
597.88947	0.11073
595.96080	0.10940
594.03212	0.10830
592.10344	0.10729
590.17477	0.10619
588.24609	0.10501
586.31742	0.10384
584.38874	0.10273
582.46007	0.10163
580.53139	0.10052
578.60271	0.09944
576.67404	0.09839
574.74536	0.09731
572.81669	0.09622
570.88801	0.09523
568.95934	0.09436
567.03066	0.09347
565.10198	0.09254
563.17331	0.09174
561.24463	0.09110
559.31596	0.09047
557.38728	0.08976
555.45861	0.08899
553.52993	0.08824
551.60125	0.08756
549.67258	0.08693
547.74390	0.08632
545.81523	0.08573
543.88655	0.08524
541.95788	0.08485
540.02920	0.08442
538.10052	0.08386
536.17185	0.08320
534.24317	0.08255
532.31450	0.08196
530.38582	0.08138
528.45715	0.08075
526.52847	0.08006
524.59979	0.07932
522.67112	0.07852
520.74244	0.07766
518.81377	0.07684
516.88509	0.07603
514.95642	0.07512
513.02774	0.07419
511.09906	0.07335
509.17039	0.07258
507.24171	0.07183
505.31304	0.07104
503.38436	0.07009
501.45569	0.06898
499.52701	0.06784
497.59833	0.06664
495.66966	0.06526
493.74098	0.06386
491.81231	0.06261
489.88363	0.06146
487.95496	0.06024
486.02628	0.05901
484.09760	0.05789
482.16893	0.05676
480.24025	0.05546
478.31158	0.05404
476.38290	0.05272
474.45423	0.05151
472.52555	0.05034
470.59687	0.04932
468.66820	0.04847
466.73952	0.04767
464.81085	0.04695
462.88217	0.04643
460.95350	0.04607
459.02482	0.04577
457.09614	0.04559
455.16747	0.04556
453.23879	0.04554
451.31012	0.04549
449.38144	0.04541
447.45277	0.04515
445.52409	0.04462
443.59541	0.04395
441.66674	0.04329
439.73806	0.04259
437.80939	0.04180
435.88071	0.04098
433.95204	0.04005
432.02336	0.03893
430.09468	0.03769
428.16601	0.03641
426.23733	0.03504
424.30866	0.03365
422.37998	0.03231
420.45131	0.03095
418.52263	0.02961
416.59395	0.02833
414.66528	0.02703
412.73660	0.02583
410.80793	0.02464
408.87925	0.02333
406.95058	0.02203
405.02190	0.02081
403.09322	0.01970
401.16455	0.01865
399.23587	0.01760
397.30720	0.01659
395.37852	0.01570
393.44985	0.01478
391.52117	0.01374
389.59249	0.01269
387.66382	0.01170
385.73514	0.01078
383.80647	0.00999
381.87779	0.00930
379.94912	0.00855
378.02044	0.00779
376.09176	0.00714
374.16309	0.00657
372.23441	0.00603
370.30574	0.00547
368.37706	0.00482
