7496.76250	0.00227
7494.83382	0.00226
7492.90514	0.00227
7490.97647	0.00229
7489.04779	0.00231
7487.11912	0.00232
7485.19044	0.00233
7483.26177	0.00234
7481.33309	0.00234
7479.40441	0.00234
7477.47574	0.00233
7475.54706	0.00234
7473.61839	0.00236
7471.68971	0.00237
7469.76104	0.00238
7467.83236	0.00237
7465.90368	0.00239
7463.97501	0.00241
7462.04633	0.00241
7460.11766	0.00241
7458.18898	0.00241
7456.26031	0.00243
7454.33163	0.00244
7452.40295	0.00245
7450.47428	0.00245
7448.54560	0.00245
7446.61693	0.00245
7444.68825	0.00245
7442.75958	0.00245
7440.83090	0.00245
7438.90222	0.00247
7436.97355	0.00249
7435.04487	0.00249
7433.11620	0.00249
7431.18752	0.00249
7429.25885	0.00249
7427.33017	0.00249
7425.40149	0.00251
7423.47282	0.00252
7421.54414	0.00253
7419.61547	0.00254
7417.68679	0.00254
7415.75812	0.00254
7413.82944	0.00254
7411.90076	0.00255
7409.97209	0.00256
7408.04341	0.00257
7406.11474	0.00257
7404.18606	0.00257
7402.25739	0.00259
7400.32871	0.00261
7398.40003	0.00262
7396.47136	0.00262
7394.54268	0.00261
7392.61401	0.00261
7390.68533	0.00263
7388.75666	0.00265
7386.82798	0.00266
7384.89930	0.00265
7382.97063	0.00265
7381.04195	0.00266
7379.11328	0.00268
7377.18460	0.00268
7375.25593	0.00268
7373.32725	0.00267
7371.39857	0.00268
7369.46990	0.00269
7367.54122	0.00270
7365.61255	0.00270
7363.68387	0.00270
7361.75520	0.00270
7359.82652	0.00271
7357.89784	0.00271
7355.96917	0.00273
7354.04049	0.00275
7352.11182	0.00276
7350.18314	0.00277
7348.25447	0.00278
7346.32579	0.00279
7344.39711	0.00279
7342.46844	0.00280
7340.53976	0.00281
7338.61109	0.00282
7336.68241	0.00282
7334.75374	0.00282
7332.82506	0.00283
7330.89638	0.00284
7328.96771	0.00284
7327.03903	0.00283
7325.11036	0.00283
7323.18168	0.00284
7321.25301	0.00285
7319.32433	0.00286
7317.39565	0.00288
7315.46698	0.00289
7313.53830	0.00290
7311.60963	0.00291
7309.68095	0.00292
7307.75228	0.00293
7305.82360	0.00294
7303.89492	0.00294
7301.96625	0.00294
7300.03757	0.00295
7298.10890	0.00296
7296.18022	0.00298
7294.25155	0.00299
7292.32287	0.00299
7290.39419	0.00298
7288.46552	0.00297
7286.53684	0.00297
7284.60817	0.00299
7282.67949	0.00302
7280.75082	0.00303
7278.82214	0.00303
7276.89346	0.00303
7274.96479	0.00302
7273.03611	0.00302
7271.10744	0.00303
7269.17876	0.00304
7267.25009	0.00305
7265.32141	0.00305
7263.39273	0.00306
7261.46406	0.00308
7259.53538	0.00309
7257.60671	0.00310
7255.67803	0.00311
7253.74936	0.00311
7251.82068	0.00312
7249.89200	0.00312
7247.96333	0.00313
7246.03465	0.00313
7244.10598	0.00313
7242.17730	0.00314
7240.24863	0.00317
7238.31995	0.00319
7236.39127	0.00320
7234.46260	0.00319
7232.53392	0.00318
7230.60525	0.00318
7228.67657	0.00319
7226.74790	0.00320
7224.81922	0.00322
7222.89054	0.00324
7220.96187	0.00325
7219.03319	0.00324
7217.10452	0.00324
7215.17584	0.00323
7213.24717	0.00324
7211.31849	0.00326
7209.38981	0.00328
7207.46114	0.00328
7205.53246	0.00327
7203.60379	0.00328
7201.67511	0.00330
7199.74644	0.00332
7197.81776	0.00333
7195.88908	0.00334
7193.96041	0.00336
7192.03173	0.00336
7190.10306	0.00336
7188.17438	0.00335
7186.24571	0.00336
7184.31703	0.00337
7182.38835	0.00338
7180.45968	0.00339
7178.53100	0.00340
7176.60233	0.00343
7174.67365	0.00344
7172.74498	0.00342
7170.81630	0.00342
7168.88762	0.00342
7166.95895	0.00344
7165.03027	0.00345
7163.10160	0.00346
7161.17292	0.00346
7159.24425	0.00344
7157.31557	0.00345
7155.38689	0.00347
7153.45822	0.00348
7151.52954	0.00350
7149.60087	0.00352
7147.67219	0.00353
7145.74352	0.00353
7143.81484	0.00354
7141.88616	0.00356
7139.95749	0.00358
7138.02881	0.00358
7136.10014	0.00359
7134.17146	0.00360
7132.24279	0.00361
7130.31411	0.00361
7128.38543	0.00360
7126.45676	0.00361
7124.52808	0.00362
7122.59941	0.00363
7120.67073	0.00362
7118.74206	0.00362
7116.81338	0.00362
7114.88470	0.00364
7112.95603	0.00365
7111.02735	0.00366
7109.09868	0.00367
7107.17000	0.00369
7105.24133	0.00371
7103.31265	0.00372
7101.38397	0.00372
7099.45530	0.00373
7097.52662	0.00373
7095.59795	0.00372
7093.66927	0.00372
7091.74060	0.00374
7089.81192	0.00376
7087.88324	0.00377
7085.95457	0.00377
7084.02589	0.00377
7082.09722	0.00378
7080.16854	0.00379
7078.23987	0.00379
7076.31119	0.00379
7074.38251	0.00379
7072.45384	0.00380
7070.52516	0.00381
7068.59649	0.00383
7066.66781	0.00384
7064.73914	0.00387
7062.81046	0.00389
7060.88178	0.00389
7058.95311	0.00387
7057.02443	0.00387
7055.09576	0.00388
7053.16708	0.00390
7051.23841	0.00391
7049.30973	0.00392
7047.38105	0.00393
7045.45238	0.00395
7043.52370	0.00396
7041.59503	0.00397
7039.66635	0.00397
7037.73768	0.00397
7035.80900	0.00398
7033.88032	0.00400
7031.95165	0.00402
7030.02297	0.00402
7028.09430	0.00402
7026.16562	0.00402
7024.23695	0.00403
7022.30827	0.00405
7020.37959	0.00407
7018.45092	0.00408
7016.52224	0.00408
7014.59357	0.00408
7012.66489	0.00408
7010.73622	0.00410
7008.80754	0.00412
7006.87886	0.00412
7004.95019	0.00411
7003.02151	0.00411
7001.09284	0.00412
6999.16416	0.00413
6997.23549	0.00415
6995.30681	0.00415
6993.37813	0.00415
6991.44946	0.00415
6989.52078	0.00417
6987.59211	0.00418
6985.66343	0.00418
6983.73476	0.00418
6981.80608	0.00419
6979.87740	0.00421
6977.94873	0.00423
6976.02005	0.00424
6974.09138	0.00425
6972.16270	0.00427
6970.23403	0.00429
6968.30535	0.00431
6966.37667	0.00432
6964.44800	0.00433
6962.51932	0.00434
6960.59065	0.00433
6958.66197	0.00433
6956.73330	0.00434
6954.80462	0.00436
6952.87594	0.00438
6950.94727	0.00439
6949.01859	0.00439
6947.08992	0.00438
6945.16124	0.00439
6943.23257	0.00441
6941.30389	0.00442
6939.37521	0.00443
6937.44654	0.00444
6935.51786	0.00444
6933.58919	0.00445
6931.66051	0.00446
6929.73184	0.00447
6927.80316	0.00448
6925.87448	0.00449
6923.94581	0.00451
6922.01713	0.00452
6920.08846	0.00451
6918.15978	0.00451
6916.23111	0.00453
6914.30243	0.00454
6912.37375	0.00455
6910.44508	0.00456
6908.51640	0.00458
6906.58773	0.00460
6904.65905	0.00462
6902.73038	0.00463
6900.80170	0.00462
6898.87302	0.00461
6896.94435	0.00462
6895.01567	0.00462
6893.08700	0.00464
6891.15832	0.00466
6889.22965	0.00468
6887.30097	0.00468
6885.37229	0.00468
6883.44362	0.00470
6881.51494	0.00472
6879.58627	0.00473
6877.65759	0.00474
6875.72892	0.00474
6873.80024	0.00475
6871.87156	0.00476
6869.94289	0.00477
6868.01421	0.00478
6866.08554	0.00480
6864.15686	0.00481
6862.22819	0.00483
6860.29951	0.00484
6858.37083	0.00484
6856.44216	0.00484
6854.51348	0.00484
6852.58481	0.00485
6850.65613	0.00487
6848.72746	0.00489
6846.79878	0.00492
6844.87010	0.00492
6842.94143	0.00492
6841.01275	0.00491
6839.08408	0.00492
6837.15540	0.00492
6835.22673	0.00494
6833.29805	0.00497
6831.36937	0.00500
6829.44070	0.00501
6827.51202	0.00501
6825.58335	0.00501
6823.65467	0.00501
6821.72600	0.00502
6819.79732	0.00504
6817.86864	0.00506
6815.93997	0.00505
6814.01129	0.00505
6812.08262	0.00506
6810.15394	0.00507
6808.22527	0.00507
6806.29659	0.00507
6804.36791	0.00508
6802.43924	0.00510
6800.51056	0.00512
6798.58189	0.00515
6796.65321	0.00517
6794.72454	0.00518
6792.79586	0.00519
6790.86718	0.00520
6788.93851	0.00521
6787.00983	0.00522
6785.08116	0.00523
6783.15248	0.00525
6781.22381	0.00526
6779.29513	0.00527
6777.36645	0.00528
6775.43778	0.00530
6773.50910	0.00531
6771.58043	0.00531
6769.65175	0.00531
6767.72308	0.00533
6765.79440	0.00535
6763.86572	0.00537
6761.93705	0.00538
6760.00837	0.00538
6758.07970	0.00538
6756.15102	0.00538
6754.22235	0.00540
6752.29367	0.00541
6750.36499	0.00543
6748.43632	0.00544
6746.50764	0.00544
6744.57897	0.00544
6742.65029	0.00546
6740.72162	0.00548
6738.79294	0.00548
6736.86426	0.00549
6734.93559	0.00551
6733.00691	0.00554
6731.07824	0.00556
6729.14956	0.00556
6727.22089	0.00556
6725.29221	0.00556
6723.36353	0.00557
6721.43486	0.00559
6719.50618	0.00560
6717.57751	0.00560
6715.64883	0.00560
6713.72016	0.00562
6711.79148	0.00566
6709.86280	0.00568
6707.93413	0.00569
6706.00545	0.00569
6704.07678	0.00568
6702.14810	0.00568
6700.21943	0.00569
6698.29075	0.00571
6696.36207	0.00573
6694.43340	0.00575
6692.50472	0.00577
6690.57605	0.00579
6688.64737	0.00581
6686.71870	0.00582
6684.79002	0.00583
6682.86134	0.00584
6680.93267	0.00585
6679.00399	0.00586
6677.07532	0.00587
6675.14664	0.00587
6673.21797	0.00587
6671.28929	0.00588
6669.36061	0.00590
6667.43194	0.00594
6665.50326	0.00596
6663.57459	0.00596
6661.64591	0.00595
6659.71724	0.00596
6657.78856	0.00598
6655.85988	0.00601
6653.93121	0.00604
6652.00253	0.00604
6650.07386	0.00604
6648.14518	0.00603
6646.21651	0.00603
6644.28783	0.00605
6642.35915	0.00607
6640.43048	0.00610
6638.50180	0.00611
6636.57313	0.00612
6634.64445	0.00613
6632.71578	0.00614
6630.78710	0.00615
6628.85842	0.00617
6626.92975	0.00619
6625.00107	0.00620
6623.07240	0.00622
6621.14372	0.00624
6619.21505	0.00625
6617.28637	0.00624
6615.35769	0.00625
6613.42902	0.00626
6611.50034	0.00628
6609.57167	0.00629
6607.64299	0.00631
6605.71432	0.00632
6603.78564	0.00634
6601.85696	0.00636
6599.92829	0.00636
6597.99961	0.00637
6596.07094	0.00639
6594.14226	0.00642
6592.21359	0.00643
6590.28491	0.00643
6588.35623	0.00644
6586.42756	0.00646
6584.49888	0.00648
6582.57021	0.00650
6580.64153	0.00652
6578.71286	0.00653
6576.78418	0.00655
6574.85550	0.00657
6572.92683	0.00656
6570.99815	0.00657
6569.06948	0.00659
6567.14080	0.00662
6565.21213	0.00664
6563.28345	0.00665
6561.35477	0.00666
6559.42610	0.00667
6557.49742	0.00669
6555.56875	0.00669
6553.64007	0.00669
6551.71140	0.00668
6549.78272	0.00670
6547.85404	0.00672
6545.92537	0.00674
6543.99669	0.00677
6542.06802	0.00678
6540.13934	0.00678
6538.21067	0.00679
6536.28199	0.00681
6534.35331	0.00683
6532.42464	0.00686
6530.49596	0.00686
6528.56729	0.00687
6526.63861	0.00688
6524.70994	0.00690
6522.78126	0.00690
6520.85258	0.00691
6518.92391	0.00692
6516.99523	0.00695
6515.06656	0.00698
6513.13788	0.00699
6511.20921	0.00700
6509.28053	0.00702
6507.35185	0.00705
6505.42318	0.00706
6503.49450	0.00705
6501.56583	0.00704
6499.63715	0.00705
6497.70848	0.00708
6495.77980	0.00711
6493.85112	0.00713
6491.92245	0.00714
6489.99377	0.00716
6488.06510	0.00716
6486.13642	0.00717
6484.20775	0.00721
6482.27907	0.00725
6480.35039	0.00726
6478.42172	0.00726
6476.49304	0.00727
6474.56437	0.00729
6472.63569	0.00730
6470.70702	0.00731
6468.77834	0.00733
6466.84966	0.00736
6464.92099	0.00738
6462.99231	0.00738
6461.06364	0.00740
6459.13496	0.00742
6457.20629	0.00743
6455.27761	0.00743
6453.34893	0.00743
6451.42026	0.00745
6449.49158	0.00747
6447.56291	0.00749
6445.63423	0.00750
6443.70556	0.00752
6441.77688	0.00754
6439.84820	0.00756
6437.91953	0.00757
6435.99085	0.00759
6434.06218	0.00760
6432.13350	0.00761
6430.20483	0.00763
6428.27615	0.00765
6426.34747	0.00767
6424.41880	0.00768
6422.49012	0.00769
6420.56145	0.00771
6418.63277	0.00772
6416.70410	0.00774
6414.77542	0.00776
6412.84674	0.00778
6410.91807	0.00781
6408.98939	0.00782
6407.06072	0.00783
6405.13204	0.00784
6403.20337	0.00786
6401.27469	0.00787
6399.34601	0.00789
6397.41734	0.00791
6395.48866	0.00791
6393.55999	0.00792
6391.63131	0.00793
6389.70264	0.00794
6387.77396	0.00796
6385.84528	0.00799
6383.91661	0.00801
6381.98793	0.00803
6380.05926	0.00804
6378.13058	0.00807
6376.20191	0.00811
6374.27323	0.00813
6372.34455	0.00813
6370.41588	0.00813
6368.48720	0.00814
6366.55853	0.00815
6364.62985	0.00817
6362.70118	0.00820
6360.77250	0.00822
6358.84382	0.00823
6356.91515	0.00825
6354.98647	0.00826
6353.05780	0.00828
6351.12912	0.00832
6349.20045	0.00834
6347.27177	0.00835
6345.34309	0.00836
6343.41442	0.00837
6341.48574	0.00838
6339.55707	0.00840
6337.62839	0.00841
6335.69972	0.00843
6333.77104	0.00845
6331.84236	0.00847
6329.91369	0.00848
6327.98501	0.00850
6326.05634	0.00852
6324.12766	0.00854
6322.19899	0.00856
6320.27031	0.00858
6318.34163	0.00860
6316.41296	0.00860
6314.48428	0.00862
6312.55561	0.00865
6310.62693	0.00867
6308.69826	0.00869
6306.76958	0.00870
6304.84090	0.00872
6302.91223	0.00873
6300.98355	0.00875
6299.05488	0.00877
6297.12620	0.00879
6295.19753	0.00881
6293.26885	0.00884
6291.34017	0.00887
6289.41150	0.00891
6287.48282	0.00891
6285.55415	0.00891
6283.62547	0.00893
6281.69680	0.00896
6279.76812	0.00900
6277.83944	0.00902
6275.91077	0.00902
6273.98209	0.00902
6272.05342	0.00903
6270.12474	0.00904
6268.19607	0.00906
6266.26739	0.00909
6264.33871	0.00913
6262.41004	0.00915
6260.48136	0.00918
6258.55269	0.00920
6256.62401	0.00920
6254.69534	0.00921
6252.76666	0.00922
6250.83798	0.00923
6248.90931	0.00925
6246.98063	0.00928
6245.05196	0.00932
6243.12328	0.00935
6241.19461	0.00937
6239.26593	0.00937
6237.33725	0.00938
6235.40858	0.00940
6233.47990	0.00943
6231.55123	0.00946
6229.62255	0.00947
6227.69388	0.00948
6225.76520	0.00950
6223.83652	0.00953
6221.90785	0.00955
6219.97917	0.00956
6218.05050	0.00957
6216.12182	0.00959
6214.19315	0.00961
6212.26447	0.00963
6210.33579	0.00964
6208.40712	0.00966
6206.47844	0.00969
6204.54977	0.00972
6202.62109	0.00975
6200.69242	0.00976
6198.76374	0.00978
6196.83506	0.00980
6194.90639	0.00982
6192.97771	0.00985
6191.04904	0.00987
6189.12036	0.00988
6187.19169	0.00989
6185.26301	0.00991
6183.33433	0.00993
6181.40566	0.00995
6179.47698	0.00997
6177.54831	0.00999
6175.61963	0.01001
6173.69096	0.01004
6171.76228	0.01006
6169.83360	0.01009
6167.90493	0.01012
6165.97625	0.01016
6164.04758	0.01016
6162.11890	0.01016
6160.19023	0.01019
6158.26155	0.01021
6156.33287	0.01021
6154.40420	0.01023
6152.47552	0.01026
6150.54685	0.01030
6148.61817	0.01034
6146.68950	0.01037
6144.76082	0.01038
6142.83214	0.01038
6140.90347	0.01039
6138.97479	0.01041
6137.04612	0.01043
6135.11744	0.01045
6133.18877	0.01047
6131.26009	0.01050
6129.33141	0.01053
6127.40274	0.01055
6125.47406	0.01056
6123.54539	0.01058
6121.61671	0.01061
6119.68804	0.01064
6117.75936	0.01066
6115.83068	0.01068
6113.90201	0.01070
6111.97333	0.01074
6110.04466	0.01075
6108.11598	0.01077
6106.18731	0.01080
6104.25863	0.01083
6102.32995	0.01084
6100.40128	0.01085
6098.47260	0.01087
6096.54393	0.01090
6094.61525	0.01092
6092.68658	0.01096
6090.75790	0.01098
6088.82922	0.01100
6086.90055	0.01102
6084.97187	0.01104
6083.04320	0.01105
6081.11452	0.01107
6079.18585	0.01110
6077.25717	0.01113
6075.32849	0.01115
6073.39982	0.01117
6071.47114	0.01119
6069.54247	0.01121
6067.61379	0.01123
6065.68512	0.01125
6063.75644	0.01128
6061.82776	0.01130
6059.89909	0.01133
6057.97041	0.01137
6056.04174	0.01140
6054.11306	0.01140
6052.18439	0.01141
6050.25571	0.01143
6048.32703	0.01148
6046.39836	0.01152
6044.46968	0.01156
6042.54101	0.01159
6040.61233	0.01161
6038.68366	0.01162
6036.75498	0.01162
6034.82630	0.01162
6032.89763	0.01164
6030.96895	0.01167
6029.04028	0.01170
6027.11160	0.01175
6025.18293	0.01178
6023.25425	0.01179
6021.32557	0.01180
6019.39690	0.01183
6017.46822	0.01187
6015.53955	0.01189
6013.61087	0.01191
6011.68220	0.01193
6009.75352	0.01194
6007.82484	0.01196
6005.89617	0.01198
6003.96749	0.01202
6002.03882	0.01206
6000.11014	0.01208
5998.18147	0.01209
5996.25279	0.01212
5994.32411	0.01216
5992.39544	0.01219
5990.46676	0.01222
5988.53809	0.01226
5986.60941	0.01229
5984.68074	0.01233
5982.75206	0.01236
5980.82338	0.01239
5978.89471	0.01241
5976.96603	0.01242
5975.03736	0.01241
5973.10868	0.01242
5971.18001	0.01245
5969.25133	0.01248
5967.32265	0.01251
5965.39398	0.01255
5963.46530	0.01258
5961.53663	0.01261
5959.60795	0.01262
5957.67928	0.01263
5955.75060	0.01265
5953.82192	0.01268
5951.89325	0.01271
5949.96457	0.01273
5948.03590	0.01275
5946.10722	0.01278
5944.17855	0.01281
5942.24987	0.01284
5940.32119	0.01287
5938.39252	0.01287
5936.46384	0.01288
5934.53517	0.01293
5932.60649	0.01298
5930.67782	0.01302
5928.74914	0.01305
5926.82046	0.01306
5924.89179	0.01309
5922.96311	0.01312
5921.03444	0.01316
5919.10576	0.01319
5917.17709	0.01320
5915.24841	0.01322
5913.31973	0.01324
5911.39106	0.01326
5909.46238	0.01329
5907.53371	0.01333
5905.60503	0.01337
5903.67636	0.01339
5901.74768	0.01341
5899.81900	0.01342
5897.89033	0.01344
5895.96165	0.01346
5894.03298	0.01349
5892.10430	0.01352
5890.17563	0.01356
5888.24695	0.01360
5886.31827	0.01362
5884.38960	0.01365
5882.46092	0.01368
5880.53225	0.01370
5878.60357	0.01371
5876.67490	0.01375
5874.74622	0.01378
5872.81755	0.01381
5870.88887	0.01384
5868.96019	0.01388
5867.03152	0.01391
5865.10284	0.01393
5863.17417	0.01394
5861.24549	0.01398
5859.31682	0.01402
5857.38814	0.01406
5855.45946	0.01408
5853.53079	0.01409
5851.60211	0.01413
5849.67344	0.01417
5847.74476	0.01419
5845.81609	0.01419
5843.88741	0.01420
5841.95873	0.01422
5840.03006	0.01428
5838.10138	0.01435
5836.17271	0.01440
5834.24403	0.01441
5832.31536	0.01442
5830.38668	0.01442
5828.45800	0.01444
5826.52933	0.01449
5824.60065	0.01455
5822.67198	0.01460
5820.74330	0.01462
5818.81463	0.01464
5816.88595	0.01467
5814.95727	0.01471
5813.02860	0.01473
5811.09992	0.01475
5809.17125	0.01479
5807.24257	0.01483
5805.31390	0.01487
5803.38522	0.01488
5801.45654	0.01487
5799.52787	0.01488
5797.59919	0.01491
5795.67052	0.01495
5793.74184	0.01499
5791.81317	0.01502
5789.88449	0.01505
5787.95581	0.01509
5786.02714	0.01512
5784.09846	0.01514
5782.16979	0.01518
5780.24111	0.01522
5778.31244	0.01526
5776.38376	0.01530
5774.45508	0.01534
5772.52641	0.01538
5770.59773	0.01540
5768.66906	0.01543
5766.74038	0.01545
5764.81171	0.01546
5762.88303	0.01548
5760.95435	0.01551
5759.02568	0.01554
5757.09700	0.01557
5755.16833	0.01561
5753.23965	0.01565
5751.31098	0.01568
5749.38230	0.01572
5747.45362	0.01575
5745.52495	0.01579
5743.59627	0.01581
5741.66760	0.01582
5739.73892	0.01583
5737.81025	0.01587
5735.88157	0.01592
5733.95289	0.01596
5732.02422	0.01600
5730.09554	0.01603
5728.16687	0.01607
5726.23819	0.01612
5724.30952	0.01615
5722.38084	0.01618
5720.45216	0.01622
5718.52349	0.01624
5716.59481	0.01625
5714.66614	0.01626
5712.73746	0.01630
5710.80879	0.01636
5708.88011	0.01641
5706.95143	0.01643
5705.02276	0.01645
5703.09408	0.01647
5701.16541	0.01650
5699.23673	0.01655
5697.30806	0.01660
5695.37938	0.01665
5693.45070	0.01668
5691.52203	0.01670
5689.59335	0.01672
5687.66468	0.01676
5685.73600	0.01681
5683.80733	0.01683
5681.87865	0.01685
5679.94997	0.01687
5678.02130	0.01691
5676.09262	0.01695
5674.16395	0.01697
5672.23527	0.01700
5670.30660	0.01704
5668.37792	0.01707
5666.44924	0.01711
5664.52057	0.01714
5662.59189	0.01717
5660.66322	0.01721
5658.73454	0.01726
5656.80587	0.01729
5654.87719	0.01732
5652.94851	0.01735
5651.01984	0.01740
5649.09116	0.01745
5647.16249	0.01748
5645.23381	0.01750
5643.30514	0.01753
5641.37646	0.01755
5639.44778	0.01757
5637.51911	0.01760
5635.59043	0.01764
5633.66176	0.01768
5631.73308	0.01771
5629.80441	0.01774
5627.87573	0.01778
5625.94705	0.01783
5624.01838	0.01787
5622.08970	0.01791
5620.16103	0.01795
5618.23235	0.01798
5616.30368	0.01800
5614.37500	0.01801
5612.44632	0.01803
5610.51765	0.01808
5608.58897	0.01814
5606.66030	0.01820
5604.73162	0.01824
5602.80295	0.01826
5600.87427	0.01829
5598.94559	0.01832
5597.01692	0.01833
5595.08824	0.01835
5593.15957	0.01838
5591.23089	0.01842
5589.30222	0.01847
5587.37354	0.01850
5585.44486	0.01852
5583.51619	0.01856
5581.58751	0.01860
5579.65884	0.01865
5577.73016	0.01869
5575.80149	0.01873
5573.87281	0.01876
5571.94413	0.01879
5570.01546	0.01883
5568.08678	0.01887
5566.15811	0.01892
5564.22943	0.01897
5562.30076	0.01901
5560.37208	0.01904
5558.44340	0.01907
5556.51473	0.01909
5554.58605	0.01910
5552.65738	0.01913
5550.72870	0.01920
5548.80003	0.01926
5546.87135	0.01931
5544.94267	0.01933
5543.01400	0.01935
5541.08532	0.01939
5539.15665	0.01944
5537.22797	0.01946
5535.29930	0.01947
5533.37062	0.01950
5531.44194	0.01955
5529.51327	0.01959
5527.58459	0.01965
5525.65592	0.01970
5523.72724	0.01973
5521.79857	0.01975
5519.86989	0.01978
5517.94121	0.01981
5516.01254	0.01985
5514.08386	0.01991
5512.15519	0.01995
5510.22651	0.01996
5508.29784	0.01999
5506.36916	0.02004
5504.44048	0.02008
5502.51181	0.02011
5500.58313	0.02017
5498.65446	0.02023
5496.72578	0.02026
5494.79711	0.02027
5492.86843	0.02027
5490.93975	0.02029
5489.01108	0.02034
5487.08240	0.02039
5485.15373	0.02044
5483.22505	0.02049
5481.29638	0.02053
5479.36770	0.02056
5477.43902	0.02060
5475.51035	0.02065
5473.58167	0.02070
5471.65300	0.02073
5469.72432	0.02076
5467.79565	0.02079
5465.86697	0.02083
5463.93829	0.02088
5462.00962	0.02091
5460.08094	0.02094
5458.15227	0.02098
5456.22359	0.02104
5454.29492	0.02110
5452.36624	0.02116
5450.43756	0.02119
5448.50889	0.02121
5446.58021	0.02124
5444.65154	0.02129
5442.72286	0.02134
5440.79419	0.02138
5438.86551	0.02140
5436.93683	0.02141
5435.00816	0.02144
5433.07948	0.02149
5431.15081	0.02154
5429.22213	0.02158
5427.29346	0.02162
5425.36478	0.02168
5423.43610	0.02172
5421.50743	0.02174
5419.57875	0.02178
5417.65008	0.02183
5415.72140	0.02186
5413.79273	0.02189
5411.86405	0.02195
5409.93537	0.02201
5408.00670	0.02204
5406.07802	0.02207
5404.14935	0.02211
5402.22067	0.02217
5400.29200	0.02223
5398.36332	0.02228
5396.43464	0.02229
5394.50597	0.02231
5392.57729	0.02235
5390.64862	0.02239
5388.71994	0.02243
5386.79127	0.02245
5384.86259	0.02249
5382.93391	0.02255
5381.00524	0.02261
5379.07656	0.02266
5377.14789	0.02270
5375.21921	0.02274
5373.29054	0.02277
5371.36186	0.02280
5369.43318	0.02283
5367.50451	0.02287
5365.57583	0.02292
5363.64716	0.02295
5361.71848	0.02298
5359.78981	0.02302
5357.86113	0.02306
5355.93245	0.02308
5354.00378	0.02312
5352.07510	0.02318
5350.14643	0.02324
5348.21775	0.02328
5346.28908	0.02331
5344.36040	0.02335
5342.43172	0.02339
5340.50305	0.02343
5338.57437	0.02346
5336.64570	0.02351
5334.71702	0.02357
5332.78835	0.02363
5330.85967	0.02369
5328.93099	0.02374
5327.00232	0.02376
5325.07364	0.02379
5323.14497	0.02384
5321.21629	0.02388
5319.28762	0.02393
5317.35894	0.02398
5315.43026	0.02402
5313.50159	0.02406
5311.57291	0.02408
5309.64424	0.02411
5307.71556	0.02415
5305.78689	0.02420
5303.85821	0.02426
5301.92953	0.02432
5300.00086	0.02437
5298.07218	0.02441
5296.14351	0.02443
5294.21483	0.02446
5292.28616	0.02450
5290.35748	0.02456
5288.42880	0.02461
5286.50013	0.02466
5284.57145	0.02471
5282.64278	0.02477
5280.71410	0.02481
5278.78543	0.02485
5276.85675	0.02488
5274.92807	0.02492
5272.99940	0.02497
5271.07072	0.02501
5269.14205	0.02506
5267.21337	0.02509
5265.28470	0.02512
5263.35602	0.02515
5261.42734	0.02519
5259.49867	0.02523
5257.56999	0.02528
5255.64132	0.02532
5253.71264	0.02537
5251.78397	0.02543
5249.85529	0.02546
5247.92661	0.02548
5245.99794	0.02552
5244.06926	0.02558
5242.14059	0.02564
5240.21191	0.02569
5238.28324	0.02575
5236.35456	0.02581
5234.42588	0.02584
5232.49721	0.02586
5230.56853	0.02589
5228.63986	0.02596
5226.71118	0.02602
5224.78251	0.02606
5222.85383	0.02611
5220.92515	0.02615
5218.99648	0.02619
5217.06780	0.02622
5215.13913	0.02628
5213.21045	0.02635
5211.28178	0.02640
5209.35310	0.02644
5207.42442	0.02647
5205.49575	0.02652
5203.56707	0.02656
5201.63840	0.02660
5199.70972	0.02663
5197.78105	0.02667
5195.85237	0.02672
5193.92369	0.02677
5191.99502	0.02683
5190.06634	0.02688
5188.13767	0.02691
5186.20899	0.02694
5184.28032	0.02698
5182.35164	0.02703
5180.42296	0.02707
5178.49429	0.02711
5176.56561	0.02717
5174.63694	0.02723
5172.70826	0.02729
5170.77959	0.02734
5168.85091	0.02740
5166.92223	0.02745
5164.99356	0.02749
5163.06488	0.02752
5161.13621	0.02755
5159.20753	0.02757
5157.27886	0.02762
5155.35018	0.02767
5153.42150	0.02772
5151.49283	0.02777
5149.56415	0.02783
5147.63548	0.02788
5145.70680	0.02793
5143.77813	0.02799
5141.84945	0.02804
5139.92077	0.02806
5137.99210	0.02808
5136.06342	0.02813
5134.13475	0.02819
5132.20607	0.02826
5130.27740	0.02831
5128.34872	0.02836
5126.42004	0.02842
5124.49137	0.02846
5122.56269	0.02849
5120.63402	0.02851
5118.70534	0.02856
5116.77667	0.02863
5114.84799	0.02870
5112.91931	0.02875
5110.99064	0.02878
5109.06196	0.02882
5107.13329	0.02887
5105.20461	0.02891
5103.27594	0.02896
5101.34726	0.02901
5099.41858	0.02905
5097.48991	0.02909
5095.56123	0.02914
5093.63256	0.02919
5091.70388	0.02922
5089.77521	0.02926
5087.84653	0.02932
5085.91785	0.02941
5083.98918	0.02948
5082.06050	0.02953
5080.13183	0.02955
5078.20315	0.02958
5076.27448	0.02963
5074.34580	0.02969
5072.41712	0.02974
5070.48845	0.02978
5068.55977	0.02984
5066.63110	0.02989
5064.70242	0.02994
5062.77375	0.02998
5060.84507	0.03003
5058.91639	0.03008
5056.98772	0.03013
5055.05904	0.03018
5053.13037	0.03021
5051.20169	0.03024
5049.27302	0.03027
5047.34434	0.03032
5045.41566	0.03038
5043.48699	0.03044
5041.55831	0.03050
5039.62964	0.03056
5037.70096	0.03060
5035.77229	0.03063
5033.84361	0.03067
5031.91493	0.03073
5029.98626	0.03078
5028.05758	0.03082
5026.12891	0.03089
5024.20023	0.03095
5022.27156	0.03100
5020.34288	0.03104
5018.41420	0.03108
5016.48553	0.03114
5014.55685	0.03119
5012.62818	0.03124
5010.69950	0.03128
5008.77083	0.03135
5006.84215	0.03142
5004.91347	0.03147
5002.98480	0.03153
5001.05612	0.03159
4999.12745	0.03164
4997.19877	0.03167
4995.27010	0.03173
4993.34142	0.03179
4991.41274	0.03183
4989.48407	0.03187
4987.55539	0.03193
4985.62672	0.03197
4983.69804	0.03200
4981.76937	0.03206
4979.84069	0.03214
4977.91201	0.03219
4975.98334	0.03221
4974.05466	0.03223
4972.12599	0.03230
4970.19731	0.03238
4968.26864	0.03245
4966.33996	0.03250
4964.41128	0.03254
4962.48261	0.03258
4960.55393	0.03263
4958.62526	0.03267
4956.69658	0.03273
4954.76791	0.03279
4952.83923	0.03285
4950.91055	0.03290
4948.98188	0.03296
4947.05320	0.03302
4945.12453	0.03309
4943.19585	0.03314
4941.26718	0.03319
4939.33850	0.03322
4937.40982	0.03326
4935.48115	0.03329
4933.55247	0.03333
4931.62380	0.03339
4929.69512	0.03347
4927.76645	0.03353
4925.83777	0.03358
4923.90909	0.03363
4921.98042	0.03369
4920.05174	0.03375
4918.12307	0.03381
4916.19439	0.03387
4914.26572	0.03392
4912.33704	0.03396
4910.40836	0.03401
4908.47969	0.03405
4906.55101	0.03410
4904.62234	0.03416
4902.69366	0.03423
4900.76499	0.03427
4898.83631	0.03432
4896.90763	0.03436
4894.97896	0.03440
4893.05028	0.03445
4891.12161	0.03452
4889.19293	0.03460
4887.26426	0.03467
4885.33558	0.03472
4883.40690	0.03476
4881.47823	0.03481
4879.54955	0.03486
4877.62088	0.03492
4875.69220	0.03499
4873.76353	0.03506
4871.83485	0.03511
4869.90617	0.03514
4867.97750	0.03518
4866.04882	0.03523
4864.12015	0.03528
4862.19147	0.03533
4860.26280	0.03539
4858.33412	0.03545
4856.40544	0.03552
4854.47677	0.03560
4852.54809	0.03566
4850.61942	0.03572
4848.69074	0.03576
4846.76207	0.03580
4844.83339	0.03585
4842.90471	0.03589
4840.97604	0.03594
4839.04736	0.03599
4837.11869	0.03608
4835.19001	0.03616
4833.26134	0.03623
4831.33266	0.03627
4829.40398	0.03631
4827.47531	0.03636
4825.54663	0.03641
4823.61796	0.03649
4821.68928	0.03656
4819.76061	0.03661
4817.83193	0.03665
4815.90325	0.03670
4813.97458	0.03676
4812.04590	0.03683
4810.11723	0.03690
4808.18855	0.03695
4806.25988	0.03700
4804.33120	0.03706
4802.40252	0.03714
4800.47385	0.03721
4798.54517	0.03727
4796.61650	0.03732
4794.68782	0.03736
4792.75915	0.03740
4790.83047	0.03745
4788.90179	0.03751
4786.97312	0.03758
4785.04444	0.03766
4783.11577	0.03774
4781.18709	0.03780
4779.25842	0.03785
4777.32974	0.03792
4775.40106	0.03798
4773.47239	0.03803
4771.54371	0.03806
4769.61504	0.03810
4767.68636	0.03817
4765.75769	0.03825
4763.82901	0.03832
4761.90033	0.03837
4759.97166	0.03842
4758.04298	0.03848
4756.11431	0.03856
4754.18563	0.03862
4752.25696	0.03868
4750.32828	0.03874
4748.39960	0.03882
4746.47093	0.03890
4744.54225	0.03895
4742.61358	0.03898
4740.68490	0.03904
4738.75623	0.03912
4736.82755	0.03920
4734.89887	0.03926
4732.97020	0.03929
4731.04152	0.03933
4729.11285	0.03939
4727.18417	0.03946
4725.25550	0.03954
4723.32682	0.03962
4721.39814	0.03969
4719.46947	0.03974
4717.54079	0.03979
4715.61212	0.03985
4713.68344	0.03991
4711.75477	0.03998
4709.82609	0.04005
4707.89741	0.04012
4705.96874	0.04017
4704.04006	0.04022
4702.11139	0.04028
4700.18271	0.04034
4698.25404	0.04039
4696.32536	0.04045
4694.39668	0.04052
4692.46801	0.04061
4690.53933	0.04068
4688.61066	0.04074
4686.68198	0.04079
4684.75331	0.04087
4682.82463	0.04095
4680.89595	0.04101
4678.96728	0.04106
4677.03860	0.04111
4675.10993	0.04118
4673.18125	0.04125
4671.25258	0.04132
4669.32390	0.04138
4667.39522	0.04146
4665.46655	0.04152
4663.53787	0.04158
4661.60920	0.04166
4659.68052	0.04174
4657.75185	0.04180
4655.82317	0.04186
4653.89449	0.04193
4651.96582	0.04199
4650.03714	0.04206
4648.10847	0.04215
4646.17979	0.04222
4644.25112	0.04227
4642.32244	0.04233
4640.39376	0.04240
4638.46509	0.04246
4636.53641	0.04254
4634.60774	0.04262
4632.67906	0.04269
4630.75039	0.04277
4628.82171	0.04284
4626.89303	0.04290
4624.96436	0.04296
4623.03568	0.04300
4621.10701	0.04305
4619.17833	0.04313
4617.24966	0.04322
4615.32098	0.04330
4613.39230	0.04336
4611.46363	0.04343
4609.53495	0.04351
4607.60628	0.04360
4605.67760	0.04367
4603.74893	0.04372
4601.82025	0.04378
4599.89157	0.04386
4597.96290	0.04394
4596.03422	0.04402
4594.10555	0.04408
4592.17687	0.04415
4590.24820	0.04422
4588.31952	0.04430
4586.39084	0.04438
4584.46217	0.04445
4582.53349	0.04452
4580.60482	0.04462
4578.67614	0.04468
4576.74747	0.04473
4574.81879	0.04481
4572.89011	0.04492
4570.96144	0.04500
4569.03276	0.04505
4567.10409	0.04510
4565.17541	0.04518
4563.24674	0.04525
4561.31806	0.04530
4559.38938	0.04536
4557.46071	0.04544
4555.53203	0.04552
4553.60336	0.04561
4551.67468	0.04569
4549.74601	0.04576
4547.81733	0.04583
4545.88865	0.04592
4543.95998	0.04600
4542.03130	0.04608
4540.10263	0.04616
4538.17395	0.04624
4536.24528	0.04632
4534.31660	0.04638
4532.38792	0.04646
4530.45925	0.04655
4528.53057	0.04664
4526.60190	0.04670
4524.67322	0.04674
4522.74455	0.04680
4520.81587	0.04688
4518.88719	0.04698
4516.95852	0.04709
4515.02984	0.04718
4513.10117	0.04724
4511.17249	0.04730
4509.24382	0.04738
4507.31514	0.04747
4505.38646	0.04755
4503.45779	0.04761
4501.52911	0.04768
4499.60044	0.04779
4497.67176	0.04788
4495.74309	0.04797
4493.81441	0.04805
4491.88573	0.04812
4489.95706	0.04819
4488.02838	0.04827
4486.09971	0.04834
4484.17103	0.04841
4482.24236	0.04848
4480.31368	0.04857
4478.38500	0.04867
4476.45633	0.04877
4474.52765	0.04885
4472.59898	0.04891
4470.67030	0.04896
4468.74163	0.04904
4466.81295	0.04912
4464.88427	0.04921
4462.95560	0.04930
4461.02692	0.04940
4459.09825	0.04948
4457.16957	0.04956
4455.24090	0.04964
4453.31222	0.04976
4451.38354	0.04989
4449.45487	0.04996
4447.52619	0.05001
4445.59752	0.05007
4443.66884	0.05016
4441.74017	0.05024
4439.81149	0.05032
4437.88281	0.05041
4435.95414	0.05053
4434.02546	0.05064
4432.09679	0.05074
4430.16811	0.05082
4428.23944	0.05090
4426.31076	0.05098
4424.38208	0.05105
4422.45341	0.05113
4420.52473	0.05122
4418.59606	0.05131
4416.66738	0.05140
4414.73871	0.05150
4412.81003	0.05159
4410.88135	0.05166
4408.95268	0.05175
4407.02400	0.05184
4405.09533	0.05194
4403.16665	0.05205
4401.23798	0.05212
4399.30930	0.05219
4397.38062	0.05228
4395.45195	0.05241
4393.52327	0.05253
4391.59460	0.05261
4389.66592	0.05269
4387.73725	0.05280
4385.80857	0.05291
4383.87989	0.05299
4381.95122	0.05306
4380.02254	0.05315
4378.09387	0.05323
4376.16519	0.05333
4374.23652	0.05342
4372.30784	0.05352
4370.37916	0.05361
4368.45049	0.05370
4366.52181	0.05380
4364.59314	0.05388
4362.66446	0.05396
4360.73579	0.05403
4358.80711	0.05412
4356.87843	0.05424
4354.94976	0.05436
4353.02108	0.05446
4351.09241	0.05455
4349.16373	0.05464
4347.23506	0.05474
4345.30638	0.05485
4343.37770	0.05497
4341.44903	0.05508
4339.52035	0.05518
4337.59168	0.05526
4335.66300	0.05534
4333.73433	0.05540
4331.80565	0.05548
4329.87697	0.05559
4327.94830	0.05571
4326.01962	0.05582
4324.09095	0.05594
4322.16227	0.05606
4320.23360	0.05615
4318.30492	0.05623
4316.37624	0.05632
4314.44757	0.05642
4312.51889	0.05652
4310.59022	0.05662
4308.66154	0.05671
4306.73287	0.05681
4304.80419	0.05691
4302.87551	0.05700
4300.94684	0.05710
4299.01816	0.05722
4297.08949	0.05736
4295.16081	0.05748
4293.23214	0.05759
4291.30346	0.05769
4289.37478	0.05781
4287.44611	0.05793
4285.51743	0.05803
4283.58876	0.05813
4281.66008	0.05823
4279.73141	0.05833
4277.80273	0.05842
4275.87405	0.05853
4273.94538	0.05864
4272.01670	0.05875
4270.08803	0.05886
4268.15935	0.05897
4266.23068	0.05909
4264.30200	0.05918
4262.37332	0.05926
4260.44465	0.05936
4258.51597	0.05945
4256.58730	0.05955
4254.65862	0.05967
4252.72995	0.05980
4250.80127	0.05991
4248.87259	0.06001
4246.94392	0.06012
4245.01524	0.06021
4243.08657	0.06030
4241.15789	0.06043
4239.22922	0.06057
4237.30054	0.06068
4235.37186	0.06078
4233.44319	0.06089
4231.51451	0.06101
4229.58584	0.06113
4227.65716	0.06124
4225.72849	0.06134
4223.79981	0.06147
4221.87113	0.06160
4219.94246	0.06170
4218.01378	0.06179
4216.08511	0.06188
4214.15643	0.06198
4212.22776	0.06210
4210.29908	0.06225
4208.37040	0.06238
4206.44173	0.06247
4204.51305	0.06256
4202.58438	0.06268
4200.65570	0.06280
4198.72703	0.06292
4196.79835	0.06305
4194.86968	0.06319
4192.94100	0.06332
4191.01232	0.06344
4189.08365	0.06357
4187.15497	0.06370
4185.22630	0.06382
4183.29762	0.06392
4181.36895	0.06403
4179.44027	0.06414
4177.51159	0.06426
4175.58292	0.06437
4173.65424	0.06447
4171.72557	0.06458
4169.79689	0.06472
4167.86822	0.06486
4165.93954	0.06497
4164.01086	0.06506
4162.08219	0.06518
4160.15351	0.06532
4158.22484	0.06547
4156.29616	0.06560
4154.36749	0.06574
4152.43881	0.06587
4150.51013	0.06598
4148.58146	0.06609
4146.65278	0.06620
4144.72411	0.06628
4142.79543	0.06637
4140.86676	0.06650
4138.93808	0.06664
4137.00940	0.06679
4135.08073	0.06693
4133.15205	0.06707
4131.22338	0.06720
4129.29470	0.06732
4127.36603	0.06743
4125.43735	0.06755
4123.50867	0.06769
4121.58000	0.06783
4119.65132	0.06795
4117.72265	0.06807
4115.79397	0.06819
4113.86530	0.06833
4111.93662	0.06848
4110.00794	0.06861
4108.07927	0.06871
4106.15059	0.06881
4104.22192	0.06893
4102.29324	0.06908
4100.36457	0.06922
4098.43589	0.06934
4096.50721	0.06945
4094.57854	0.06956
4092.64986	0.06970
4090.72119	0.06986
4088.79251	0.07001
4086.86384	0.07013
4084.93516	0.07025
4083.00648	0.07038
4081.07781	0.07052
4079.14913	0.07068
4077.22046	0.07083
4075.29178	0.07097
4073.36311	0.07108
4071.43443	0.07120
4069.50575	0.07133
4067.57708	0.07147
4065.64840	0.07162
4063.71973	0.07176
4061.79105	0.07190
4059.86238	0.07206
4057.93370	0.07219
4056.00502	0.07229
4054.07635	0.07237
4052.14767	0.07251
4050.21900	0.07268
4048.29032	0.07283
4046.36165	0.07297
4044.43297	0.07311
4042.50429	0.07325
4040.57562	0.07339
4038.64694	0.07352
4036.71827	0.07366
4034.78959	0.07380
4032.86092	0.07393
4030.93224	0.07409
4029.00356	0.07425
4027.07489	0.07439
4025.14621	0.07452
4023.21754	0.07465
4021.28886	0.07477
4019.36019	0.07489
4017.43151	0.07501
4015.50283	0.07514
4013.57416	0.07528
4011.64548	0.07545
4009.71681	0.07561
4007.78813	0.07575
4005.85946	0.07589
4003.93078	0.07604
4002.00210	0.07619
4000.07343	0.07633
3998.14475	0.07646
3996.21608	0.07660
3994.28740	0.07675
3992.35873	0.07690
3990.43005	0.07704
3988.50137	0.07719
3986.57270	0.07734
3984.64402	0.07749
3982.71535	0.07764
3980.78667	0.07779
3978.85800	0.07795
3976.92932	0.07810
3975.00064	0.07823
3973.07197	0.07837
3971.14329	0.07853
3969.21462	0.07869
3967.28594	0.07882
3965.35727	0.07894
3963.42859	0.07907
3961.49991	0.07924
3959.57124	0.07941
3957.64256	0.07957
3955.71389	0.07972
3953.78521	0.07985
3951.85654	0.07998
3949.92786	0.08011
3947.99918	0.08026
3946.07051	0.08041
3944.14183	0.08054
3942.21316	0.08068
3940.28448	0.08087
3938.35581	0.08105
3936.42713	0.08117
3934.49845	0.08125
3932.56978	0.08136
3930.64110	0.08153
3928.71243	0.08173
3926.78375	0.08190
3924.85508	0.08203
3922.92640	0.08218
3920.99772	0.08230
3919.06905	0.08237
3917.14037	0.08252
3915.21170	0.08277
3913.28302	0.08302
3911.35435	0.08321
3909.42567	0.08334
3907.49699	0.08337
3905.56832	0.08330
3903.63964	0.08327
3901.71097	0.08338
3899.78229	0.08364
3897.85362	0.08400
3895.92494	0.08431
3893.99626	0.08444
3892.06759	0.08452
3890.13891	0.08470
3888.21024	0.08484
3886.28156	0.08488
3884.35289	0.08502
3882.42421	0.08522
3880.49553	0.08542
3878.56686	0.08568
3876.63818	0.08586
3874.70951	0.08593
3872.78083	0.08599
3870.85216	0.08606
3868.92348	0.08622
3866.99480	0.08645
3865.06613	0.08663
3863.13745	0.08683
3861.20878	0.08708
3859.28010	0.08728
3857.35143	0.08722
3855.42275	0.08689
3853.49407	0.08684
3851.56540	0.08738
3849.63672	0.08803
3847.70805	0.08839
3845.77937	0.08851
3843.85070	0.08856
3841.92202	0.08858
3839.99334	0.08860
3838.06467	0.08871
3836.13599	0.08898
3834.20732	0.08928
3832.27864	0.08953
3830.34997	0.08976
3828.42129	0.08996
3826.49261	0.09012
3824.56394	0.09021
3822.63526	0.09019
3820.70659	0.09027
3818.77791	0.09051
3816.84924	0.09072
3814.92056	0.09100
3812.99188	0.09137
3811.06321	0.09159
3809.13453	0.09162
3807.20586	0.09167
3805.27718	0.09182
3803.34851	0.09191
3801.41983	0.09202
3799.49115	0.09231
3797.56248	0.09261
3795.63380	0.09286
3793.70513	0.09313
3791.77645	0.09337
3789.84778	0.09355
3787.91910	0.09371
3785.99042	0.09384
3784.06175	0.09399
3782.13307	0.09412
3780.20440	0.09423
3778.27572	0.09443
3776.34705	0.09470
3774.41837	0.09491
3772.48969	0.09499
3770.56102	0.09502
3768.63234	0.09515
3766.70367	0.09537
3764.77499	0.09561
3762.84632	0.09582
3760.91764	0.09593
3758.98896	0.09603
3757.06029	0.09619
3755.13161	0.09623
3753.20294	0.09611
3751.27426	0.09602
3749.34559	0.09620
3747.41691	0.09637
3745.48823	0.09637
3743.55956	0.09667
3741.63088	0.09729
3739.70221	0.09761
3737.77353	0.09751
3735.84486	0.09746
3733.91618	0.09772
3731.98750	0.09816
3730.05883	0.09857
3728.13015	0.09879
3726.20148	0.09889
3724.27280	0.09904
3722.34413	0.09926
3720.41545	0.09951
3718.48677	0.09979
3716.55810	0.09999
3714.62942	0.10004
3712.70075	0.10000
3710.77207	0.10011
3708.84340	0.10046
3706.91472	0.10083
3704.98604	0.10105
3703.05737	0.10113
3701.12869	0.10129
3699.20002	0.10158
3697.27134	0.10185
3695.34267	0.10200
3693.41399	0.10200
3691.48531	0.10190
3689.55664	0.10195
3687.62796	0.10228
3685.69929	0.10271
3683.77061	0.10301
3681.84194	0.10314
3679.91326	0.10316
3677.98458	0.10304
3676.05591	0.10297
3674.12723	0.10319
3672.19856	0.10346
3670.26988	0.10365
3668.34121	0.10401
3666.41253	0.10447
3664.48385	0.10479
3662.55518	0.10497
3660.62650	0.10510
3658.69783	0.10514
3656.76915	0.10519
3654.84048	0.10531
3652.91180	0.10527
3650.98312	0.10498
3649.05445	0.10482
3647.12577	0.10509
3645.19710	0.10564
3643.26842	0.10615
3641.33975	0.10646
3639.41107	0.10667
3637.48239	0.10687
3635.55372	0.10701
3633.62504	0.10704
3631.69637	0.10689
3629.76769	0.10676
3627.83902	0.10703
3625.91034	0.10754
3623.98166	0.10785
3622.05299	0.10790
3620.12431	0.10788
3618.19564	0.10799
3616.26696	0.10819
3614.33829	0.10830
3612.40961	0.10834
3610.48093	0.10840
3608.55226	0.10856
3606.62358	0.10885
3604.69491	0.10913
3602.76623	0.10931
3600.83756	0.10943
3598.90888	0.10954
3596.98020	0.10965
3595.05153	0.10979
3593.12285	0.10999
3591.19418	0.11009
3589.26550	0.11003
3587.33683	0.11008
3585.40815	0.11040
3583.47947	0.11075
3581.55080	0.11096
3579.62212	0.11108
3577.69345	0.11120
3575.76477	0.11134
3573.83610	0.11150
3571.90742	0.11162
3569.97874	0.11160
3568.05007	0.11156
3566.12139	0.11174
3564.19272	0.11209
3562.26404	0.11239
3560.33537	0.11260
3558.40669	0.11278
3556.47801	0.11290
3554.54934	0.11297
3552.62066	0.11304
3550.69199	0.11314
3548.76331	0.11325
3546.83464	0.11333
3544.90596	0.11347
3542.97728	0.11367
3541.04861	0.11386
3539.11993	0.11401
3537.19126	0.11410
3535.26258	0.11418
3533.33391	0.11428
3531.40523	0.11438
3529.47655	0.11447
3527.54788	0.11454
3525.61920	0.11461
3523.69053	0.11468
3521.76185	0.11477
3519.83318	0.11490
3517.90450	0.11501
3515.97582	0.11508
3514.04715	0.11515
3512.11847	0.11523
3510.18980	0.11529
3508.26112	0.11535
3506.33245	0.11540
3504.40377	0.11543
3502.47509	0.11548
3500.54642	0.11557
3498.61774	0.11564
3496.68907	0.11570
3494.76039	0.11577
3492.83172	0.11585
3490.90304	0.11591
3488.97436	0.11595
3487.04569	0.11597
3485.11701	0.11602
3483.18834	0.11610
3481.25966	0.11622
3479.33099	0.11637
3477.40231	0.11650
3475.47363	0.11662
3473.54496	0.11675
3471.61628	0.11689
3469.68761	0.11705
3467.75893	0.11724
3465.83026	0.11744
3463.90158	0.11764
3461.97290	0.11785
3460.04423	0.11807
3458.11555	0.11828
3456.18688	0.11848
3454.25820	0.11865
3452.32953	0.11881
3450.40085	0.11896
3448.47217	0.11909
3446.54350	0.11924
3444.61482	0.11942
3442.68615	0.11963
3440.75747	0.11989
3438.82880	0.12020
3436.90012	0.12053
3434.97144	0.12088
3433.04277	0.12123
3431.11409	0.12159
3429.18542	0.12198
3427.25674	0.12237
3425.32807	0.12272
3423.39939	0.12304
3421.47071	0.12336
3419.54204	0.12371
3417.61336	0.12405
3415.68469	0.12434
3413.75601	0.12461
3411.82734	0.12489
3409.89866	0.12520
3407.96998	0.12551
3406.04131	0.12578
3404.11263	0.12601
3402.18396	0.12624
3400.25528	0.12650
3398.32661	0.12675
3396.39793	0.12699
3394.46925	0.12722
3392.54058	0.12749
3390.61190	0.12778
3388.68323	0.12805
3386.75455	0.12832
3384.82588	0.12858
3382.89720	0.12885
3380.96852	0.12912
3379.03985	0.12937
3377.11117	0.12960
3375.18250	0.12981
3373.25382	0.13003
3371.32515	0.13027
3369.39647	0.13053
3367.46779	0.13076
3365.53912	0.13098
3363.61044	0.13120
3361.68177	0.13143
3359.75309	0.13168
3357.82442	0.13192
3355.89574	0.13214
3353.96706	0.13237
3352.03839	0.13261
3350.10971	0.13283
3348.18104	0.13306
3346.25236	0.13329
3344.32369	0.13352
3342.39501	0.13374
3340.46633	0.13396
3338.53766	0.13417
3336.60898	0.13442
3334.68031	0.13469
3332.75163	0.13493
3330.82296	0.13512
3328.89428	0.13531
3326.96560	0.13558
3325.03693	0.13587
3323.10825	0.13613
3321.17958	0.13635
3319.25090	0.13660
3317.32223	0.13688
3315.39355	0.13713
3313.46487	0.13735
3311.53620	0.13756
3309.60752	0.13781
3307.67885	0.13808
3305.75017	0.13835
3303.82150	0.13858
3301.89282	0.13882
3299.96414	0.13907
3298.03547	0.13930
3296.10679	0.13956
3294.17812	0.13984
3292.24944	0.14011
3290.32077	0.14033
3288.39209	0.14055
3286.46341	0.14078
3284.53474	0.14105
3282.60606	0.14134
3280.67739	0.14162
3278.74871	0.14186
3276.82004	0.14206
3274.89136	0.14227
3272.96268	0.14253
3271.03401	0.14282
3269.10533	0.14310
3267.17666	0.14336
3265.24798	0.14362
3263.31931	0.14390
3261.39063	0.14419
3259.46195	0.14446
3257.53328	0.14470
3255.60460	0.14493
3253.67593	0.14519
3251.74725	0.14548
3249.81858	0.14574
3247.88990	0.14596
3245.96122	0.14619
3244.03255	0.14646
3242.10387	0.14675
3240.17520	0.14701
3238.24652	0.14725
3236.31785	0.14748
3234.38917	0.14774
3232.46049	0.14803
3230.53182	0.14832
3228.60314	0.14859
3226.67447	0.14884
3224.74579	0.14909
3222.81712	0.14933
3220.88844	0.14956
3218.95976	0.14981
3217.03109	0.15008
3215.10241	0.15034
3213.17374	0.15056
3211.24506	0.15080
3209.31639	0.15107
3207.38771	0.15134
3205.45903	0.15160
3203.53036	0.15188
3201.60168	0.15220
3199.67301	0.15249
3197.74433	0.15275
3195.81566	0.15301
3193.88698	0.15329
3191.95830	0.15357
3190.02963	0.15384
3188.10095	0.15411
3186.17228	0.15439
3184.24360	0.15468
3182.31493	0.15499
3180.38625	0.15526
3178.45757	0.15551
3176.52890	0.15576
3174.60022	0.15604
3172.67155	0.15632
3170.74287	0.15657
3168.81420	0.15682
3166.88552	0.15708
3164.95684	0.15735
3163.02817	0.15761
3161.09949	0.15786
3159.17082	0.15812
3157.24214	0.15841
3155.31347	0.15872
3153.38479	0.15901
3151.45611	0.15929
3149.52744	0.15956
3147.59876	0.15980
3145.67009	0.16004
3143.74141	0.16033
3141.81274	0.16062
3139.88406	0.16088
3137.95538	0.16114
3136.02671	0.16139
3134.09803	0.16164
3132.16936	0.16189
3130.24068	0.16216
3128.31201	0.16242
3126.38333	0.16271
3124.45465	0.16301
3122.52598	0.16326
3120.59730	0.16349
3118.66863	0.16372
3116.73995	0.16398
3114.81128	0.16425
3112.88260	0.16454
3110.95392	0.16483
3109.02525	0.16511
3107.09657	0.16538
3105.16790	0.16564
3103.23922	0.16589
3101.31055	0.16616
3099.38187	0.16642
3097.45319	0.16667
3095.52452	0.16694
3093.59584	0.16724
3091.66717	0.16752
3089.73849	0.16777
3087.80982	0.16799
3085.88114	0.16825
3083.95246	0.16855
3082.02379	0.16885
3080.09511	0.16912
3078.16644	0.16937
3076.23776	0.16961
3074.30909	0.16988
3072.38041	0.17020
3070.45173	0.17053
3068.52306	0.17081
3066.59438	0.17105
3064.66571	0.17128
3062.73703	0.17150
3060.80836	0.17175
3058.87968	0.17205
3056.95100	0.17236
3055.02233	0.17264
3053.09365	0.17286
3051.16498	0.17309
3049.23630	0.17337
3047.30763	0.17366
3045.37895	0.17392
3043.45027	0.17416
3041.52160	0.17442
3039.59292	0.17469
3037.66425	0.17496
3035.73557	0.17524
3033.80690	0.17549
3031.87822	0.17575
3029.94954	0.17603
3028.02087	0.17630
3026.09219	0.17656
3024.16352	0.17683
3022.23484	0.17711
3020.30617	0.17737
3018.37749	0.17763
3016.44881	0.17788
3014.52014	0.17812
3012.59146	0.17837
3010.66279	0.17866
3008.73411	0.17898
3006.80544	0.17928
3004.87676	0.17954
3002.94808	0.17978
3001.01941	0.18005
2999.09073	0.18034
2997.16206	0.18060
2995.23338	0.18085
2993.30471	0.18108
2991.37603	0.18130
2989.44735	0.18151
2987.51868	0.18173
2985.59000	0.18194
2983.66133	0.18214
2981.73265	0.18233
2979.80398	0.18247
2977.87530	0.18254
2975.94662	0.18259
2974.01795	0.18263
2972.08927	0.18266
2970.16060	0.18263
2968.23192	0.18256
2966.30325	0.18253
2964.37457	0.18262
2962.44589	0.18279
2960.51722	0.18300
2958.58854	0.18326
2956.65987	0.18360
2954.73119	0.18397
2952.80252	0.18433
2950.87384	0.18465
2948.94516	0.18493
2947.01649	0.18518
2945.08781	0.18538
2943.15914	0.18551
2941.23046	0.18559
2939.30179	0.18563
2937.37311	0.18564
2935.44443	0.18559
2933.51576	0.18549
2931.58708	0.18537
2929.65841	0.18525
2927.72973	0.18516
2925.80106	0.18509
2923.87238	0.18505
2921.94370	0.18509
2920.01503	0.18522
2918.08635	0.18551
2916.15768	0.18604
2914.22900	0.18684
2912.30033	0.18775
2910.37165	0.18858
2908.44297	0.18927
2906.51430	0.18984
2904.58562	0.19032
2902.65695	0.19075
2900.72827	0.19118
2898.79960	0.19162
2896.87092	0.19202
2894.94224	0.19237
2893.01357	0.19272
2891.08489	0.19309
2889.15622	0.19345
2887.22754	0.19382
2885.29887	0.19419
2883.37019	0.19453
2881.44151	0.19482
2879.51284	0.19509
2877.58416	0.19535
2875.65549	0.19559
2873.72681	0.19582
2871.79814	0.19610
2869.86946	0.19637
2867.94078	0.19661
2866.01211	0.19679
2864.08343	0.19693
2862.15476	0.19704
2860.22608	0.19712
2858.29741	0.19714
2856.36873	0.19710
2854.44005	0.19703
2852.51138	0.19698
2850.58270	0.19710
2848.65403	0.19758
2846.72535	0.19841
2844.79668	0.19934
2842.86800	0.20017
2840.93932	0.20085
2839.01065	0.20139
2837.08197	0.20186
2835.15330	0.20229
2833.22462	0.20269
2831.29595	0.20304
2829.36727	0.20334
2827.43859	0.20364
2825.50992	0.20394
2823.58124	0.20426
2821.65257	0.20460
2819.72389	0.20493
2817.79522	0.20528
2815.86654	0.20559
2813.93786	0.20586
2812.00919	0.20613
2810.08051	0.20645
2808.15184	0.20678
2806.22316	0.20708
2804.29449	0.20738
2802.36581	0.20771
2800.43713	0.20804
2798.50846	0.20834
2796.57978	0.20863
2794.65111	0.20891
2792.72243	0.20919
2790.79376	0.20947
2788.86508	0.20976
2786.93640	0.21008
2785.00773	0.21040
2783.07905	0.21071
2781.15038	0.21098
2779.22170	0.21124
2777.29303	0.21152
2775.36435	0.21183
2773.43567	0.21212
2771.50700	0.21240
2769.57832	0.21268
2767.64965	0.21298
2765.72097	0.21328
2763.79230	0.21357
2761.86362	0.21385
2759.93494	0.21414
2758.00627	0.21442
2756.07759	0.21471
2754.14892	0.21501
2752.22024	0.21530
2750.29157	0.21554
2748.36289	0.21579
2746.43421	0.21609
2744.50554	0.21640
2742.57686	0.21669
2740.64819	0.21696
2738.71951	0.21722
2736.79084	0.21748
2734.86216	0.21776
2732.93348	0.21805
2731.00481	0.21834
2729.07613	0.21864
2727.14746	0.21893
2725.21878	0.21920
2723.29011	0.21948
2721.36143	0.21976
2719.43275	0.22004
2717.50408	0.22031
2715.57540	0.22059
2713.64673	0.22089
2711.71805	0.22119
2709.78938	0.22149
2707.86070	0.22177
2705.93202	0.22204
2704.00335	0.22230
2702.07467	0.22253
2700.14600	0.22276
2698.21732	0.22304
2696.28865	0.22332
2694.35997	0.22358
2692.43129	0.22387
2690.50262	0.22420
2688.57394	0.22453
2686.64527	0.22482
2684.71659	0.22510
2682.78792	0.22537
2680.85924	0.22563
2678.93056	0.22587
2677.00189	0.22610
2675.07321	0.22635
2673.14454	0.22663
2671.21586	0.22693
2669.28719	0.22723
2667.35851	0.22751
2665.42983	0.22779
2663.50116	0.22807
2661.57248	0.22835
2659.64381	0.22865
2657.71513	0.22896
2655.78646	0.22924
2653.85778	0.22952
2651.92910	0.22979
2650.00043	0.23006
2648.07175	0.23034
2646.14308	0.23063
2644.21440	0.23090
2642.28573	0.23117
2640.35705	0.23145
2638.42837	0.23176
2636.49970	0.23210
2634.57102	0.23245
2632.64235	0.23275
2630.71367	0.23302
2628.78500	0.23330
2626.85632	0.23359
2624.92764	0.23388
2622.99897	0.23416
2621.07029	0.23448
2619.14162	0.23482
2617.21294	0.23514
2615.28427	0.23546
2613.35559	0.23576
2611.42691	0.23604
2609.49824	0.23631
2607.56956	0.23659
2605.64089	0.23691
2603.71221	0.23723
2601.78354	0.23753
2599.85486	0.23785
2597.92618	0.23819
2595.99751	0.23850
2594.06883	0.23875
2592.14016	0.23901
2590.21148	0.23932
2588.28281	0.23964
2586.35413	0.23994
2584.42545	0.24025
2582.49678	0.24059
2580.56810	0.24089
2578.63943	0.24116
2576.71075	0.24139
2574.78208	0.24161
2572.85340	0.24188
2570.92472	0.24218
2568.99605	0.24248
2567.06737	0.24278
2565.13870	0.24310
2563.21002	0.24339
2561.28135	0.24367
2559.35267	0.24396
2557.42399	0.24425
2555.49532	0.24453
2553.56664	0.24482
2551.63797	0.24512
2549.70929	0.24541
2547.78062	0.24568
2545.85194	0.24593
2543.92326	0.24618
2541.99459	0.24648
2540.06591	0.24679
2538.13724	0.24708
2536.20856	0.24738
2534.27989	0.24769
2532.35121	0.24799
2530.42253	0.24827
2528.49386	0.24855
2526.56518	0.24881
2524.63651	0.24906
2522.70783	0.24938
2520.77916	0.24975
2518.85048	0.25008
2516.92181	0.25038
2514.99313	0.25070
2513.06445	0.25101
2511.13578	0.25131
2509.20710	0.25158
2507.27843	0.25184
2505.34975	0.25216
2503.42108	0.25253
2501.49240	0.25289
2499.56372	0.25322
2497.63505	0.25353
2495.70637	0.25381
2493.77770	0.25409
2491.84902	0.25443
2489.92035	0.25480
2487.99167	0.25512
2486.06299	0.25543
2484.13432	0.25575
2482.20564	0.25607
2480.27697	0.25637
2478.34829	0.25666
2476.41962	0.25696
2474.49094	0.25729
2472.56226	0.25762
2470.63359	0.25794
2468.70491	0.25823
2466.77624	0.25855
2464.84756	0.25885
2462.91889	0.25915
2460.99021	0.25947
2459.06153	0.25981
2457.13286	0.26014
2455.20418	0.26045
2453.27551	0.26075
2451.34683	0.26105
2449.41816	0.26136
2447.48948	0.26167
2445.56080	0.26199
2443.63213	0.26227
2441.70345	0.26255
2439.77478	0.26288
2437.84610	0.26322
2435.91743	0.26353
2433.98875	0.26383
2432.06007	0.26414
2430.13140	0.26447
2428.20272	0.26480
2426.27405	0.26512
2424.34537	0.26541
2422.41670	0.26568
2420.48802	0.26596
2418.55934	0.26628
2416.63067	0.26661
2414.70199	0.26693
2412.77332	0.26725
2410.84464	0.26759
2408.91597	0.26793
2406.98729	0.26821
2405.05861	0.26846
2403.12994	0.26871
2401.20126	0.26898
2399.27259	0.26927
2397.34391	0.26960
2395.41524	0.26995
2393.48656	0.27029
2391.55788	0.27059
2389.62921	0.27087
2387.70053	0.27114
2385.77186	0.27142
2383.84318	0.27169
2381.91451	0.27192
2379.98583	0.27211
2378.05715	0.27227
2376.12848	0.27239
2374.19980	0.27244
2372.27113	0.27245
2370.34245	0.27249
2368.41378	0.27259
2366.48510	0.27273
2364.55642	0.27291
2362.62775	0.27316
2360.69907	0.27346
2358.77040	0.27383
2356.84172	0.27428
2354.91305	0.27481
2352.98437	0.27543
2351.05569	0.27609
2349.12702	0.27657
2347.19834	0.27674
2345.26967	0.27675
2343.34099	0.27680
2341.41232	0.27696
2339.48364	0.27719
2337.55496	0.27747
2335.62629	0.27777
2333.69761	0.27811
2331.76894	0.27849
2329.84026	0.27889
2327.91159	0.27926
2325.98291	0.27965
2324.05423	0.28007
2322.12556	0.28048
2320.19688	0.28088
2318.26821	0.28128
2316.33953	0.28167
2314.41086	0.28205
2312.48218	0.28243
2310.55350	0.28284
2308.62483	0.28327
2306.69615	0.28368
2304.76748	0.28403
2302.83880	0.28434
2300.91013	0.28463
2298.98145	0.28497
2297.05277	0.28536
2295.12410	0.28574
2293.19542	0.28603
2291.26675	0.28629
2289.33807	0.28658
2287.40940	0.28692
2285.48072	0.28730
2283.55204	0.28768
2281.62337	0.28800
2279.69469	0.28825
2277.76602	0.28851
2275.83734	0.28882
2273.90867	0.28911
2271.97999	0.28936
2270.05131	0.28966
2268.12264	0.29004
2266.19396	0.29040
2264.26529	0.29072
2262.33661	0.29101
2260.40794	0.29130
2258.47926	0.29157
2256.55058	0.29189
2254.62191	0.29222
2252.69323	0.29255
2250.76456	0.29285
2248.83588	0.29313
2246.90721	0.29338
2244.97853	0.29363
2243.04985	0.29395
2241.12118	0.29431
2239.19250	0.29467
2237.26383	0.29499
2235.33515	0.29527
2233.40648	0.29551
2231.47780	0.29577
2229.54912	0.29610
2227.62045	0.29647
2225.69177	0.29684
2223.76310	0.29714
2221.83442	0.29740
2219.90575	0.29769
2217.97707	0.29798
2216.04839	0.29823
2214.11972	0.29850
2212.19104	0.29882
2210.26237	0.29918
2208.33369	0.29952
2206.40502	0.29985
2204.47634	0.30014
2202.54766	0.30038
2200.61899	0.30062
2198.69031	0.30092
2196.76164	0.30124
2194.83296	0.30155
2192.90429	0.30184
2190.97561	0.30216
2189.04693	0.30249
2187.11826	0.30278
2185.18958	0.30308
2183.26091	0.30342
2181.33223	0.30375
2179.40356	0.30404
2177.47488	0.30430
2175.54620	0.30458
2173.61753	0.30488
2171.68885	0.30521
2169.76018	0.30554
2167.83150	0.30585
2165.90283	0.30615
2163.97415	0.30645
2162.04547	0.30678
2160.11680	0.30713
2158.18812	0.30746
2156.25945	0.30777
2154.33077	0.30808
2152.40210	0.30841
2150.47342	0.30874
2148.54474	0.30907
2146.61607	0.30939
2144.68739	0.30969
2142.75872	0.30998
2140.83004	0.31028
2138.90137	0.31058
2136.97269	0.31088
2135.04401	0.31118
2133.11534	0.31148
2131.18666	0.31176
2129.25799	0.31209
2127.32931	0.31243
2125.40064	0.31275
2123.47196	0.31304
2121.54328	0.31334
2119.61461	0.31365
2117.68593	0.31395
2115.75726	0.31426
2113.82858	0.31457
2111.89991	0.31491
2109.97123	0.31527
2108.04255	0.31560
2106.11388	0.31589
2104.18520	0.31617
2102.25653	0.31647
2100.32785	0.31681
2098.39918	0.31714
2096.47050	0.31742
2094.54182	0.31771
2092.61315	0.31802
2090.68447	0.31835
2088.75580	0.31868
2086.82712	0.31902
2084.89845	0.31933
2082.96977	0.31961
2081.04109	0.31988
2079.11242	0.32017
2077.18374	0.32047
2075.25507	0.32078
2073.32639	0.32110
2071.39772	0.32144
2069.46904	0.32176
2067.54036	0.32208
2065.61169	0.32242
2063.68301	0.32277
2061.75434	0.32308
2059.82566	0.32338
2057.89699	0.32367
2055.96831	0.32398
2054.03963	0.32431
2052.11096	0.32464
2050.18228	0.32493
2048.25361	0.32520
2046.32493	0.32547
2044.39626	0.32575
2042.46758	0.32605
2040.53890	0.32639
2038.61023	0.32675
2036.68155	0.32711
2034.75288	0.32745
2032.82420	0.32777
2030.89553	0.32808
2028.96685	0.32839
2027.03817	0.32870
2025.10950	0.32903
2023.18082	0.32937
2021.25215	0.32969
2019.32347	0.32997
2017.39480	0.33023
2015.46612	0.33053
2013.53744	0.33091
2011.60877	0.33126
2009.68009	0.33158
2007.75142	0.33188
2005.82274	0.33216
2003.89407	0.33248
2001.96539	0.33284
2000.03671	0.33315
1998.10804	0.33344
1996.17936	0.33371
1994.25069	0.33390
1992.32201	0.33410
1990.39334	0.33443
1988.46466	0.33481
1986.53598	0.33514
1984.60731	0.33543
1982.67863	0.33567
1980.74996	0.33588
1978.82128	0.33610
1976.89261	0.33636
1974.96393	0.33665
1973.03525	0.33697
1971.10658	0.33725
1969.17790	0.33748
1967.24923	0.33772
1965.32055	0.33802
1963.39188	0.33831
1961.46320	0.33858
1959.53452	0.33887
1957.60585	0.33917
1955.67717	0.33950
1953.74850	0.33986
1951.81982	0.34021
1949.89115	0.34054
1947.96247	0.34085
1946.03379	0.34107
1944.10512	0.34123
1942.17644	0.34149
1940.24777	0.34191
1938.31909	0.34232
1936.39042	0.34265
1934.46174	0.34297
1932.53306	0.34329
1930.60439	0.34357
1928.67571	0.34385
1926.74704	0.34415
1924.81836	0.34436
1922.88969	0.34456
1920.96101	0.34480
1919.03233	0.34497
1917.10366	0.34527
1915.17498	0.34580
1913.24631	0.34623
1911.31763	0.34649
1909.38896	0.34677
1907.46028	0.34711
1905.53160	0.34745
1903.60293	0.34775
1901.67425	0.34800
1899.74558	0.34823
1897.81690	0.34846
1895.88823	0.34873
1893.95955	0.34906
1892.03087	0.34929
1890.10220	0.34943
1888.17352	0.34978
1886.24485	0.35027
1884.31617	0.35066
1882.38750	0.35095
1880.45882	0.35126
1878.53014	0.35159
1876.60147	0.35192
1874.67279	0.35222
1872.74412	0.35236
1870.81544	0.35227
1868.88677	0.35227
1866.95809	0.35276
1865.02941	0.35346
1863.10074	0.35397
1861.17206	0.35428
1859.24339	0.35461
1857.31471	0.35500
1855.38604	0.35539
1853.45736	0.35570
1851.52868	0.35594
1849.60001	0.35610
1847.67133	0.35607
1845.74266	0.35587
1843.81398	0.35607
1841.88531	0.35687
1839.95663	0.35767
1838.02795	0.35811
1836.09928	0.35842
1834.17060	0.35867
1832.24193	0.35870
1830.31325	0.35870
1828.38458	0.35899
1826.45590	0.35937
1824.52722	0.35977
1822.59855	0.36029
1820.66987	0.36077
1818.74120	0.36111
1816.81252	0.36143
1814.88385	0.36170
1812.95517	0.36182
1811.02649	0.36194
1809.09782	0.36224
1807.16914	0.36260
1805.24047	0.36284
1803.31179	0.36287
1801.38312	0.36291
1799.45444	0.36318
1797.52576	0.36358
1795.59709	0.36372
1793.66841	0.36360
1791.73974	0.36375
1789.81106	0.36440
1787.88239	0.36494
1785.95371	0.36511
1784.02503	0.36524
1782.09636	0.36546
1780.16768	0.36575
1778.23901	0.36610
1776.31033	0.36620
1774.38166	0.36590
1772.45298	0.36568
1770.52430	0.36593
1768.59563	0.36647
1766.66695	0.36709
1764.73828	0.36749
1762.80960	0.36748
1760.88093	0.36756
1758.95225	0.36783
1757.02357	0.36803
1755.09490	0.36814
1753.16622	0.36785
1751.23755	0.36733
1749.30887	0.36730
1747.38020	0.36771
1745.45152	0.36805
1743.52284	0.36815
1741.59417	0.36811
1739.66549	0.36818
1737.73682	0.36818
1735.80814	0.36766
1733.87947	0.36741
1731.95079	0.36823
1730.02211	0.36937
1728.09344	0.37020
1726.16476	0.37074
1724.23609	0.37103
1722.30741	0.37107
1720.37874	0.37062
1718.45006	0.37001
1716.52138	0.37011
1714.59271	0.37100
1712.66403	0.37193
1710.73536	0.37242
1708.80668	0.37243
1706.87801	0.37222
1704.94933	0.37205
1703.02065	0.37155
1701.09198	0.37079
1699.16330	0.37076
1697.23463	0.37126
1695.30595	0.37186
1693.37728	0.37271
1691.44860	0.37320
1689.51992	0.37309
1687.59125	0.37264
1685.66257	0.37192
1683.73390	0.37178
1681.80522	0.37257
1679.87655	0.37335
1677.94787	0.37340
1676.01919	0.37307
1674.09052	0.37303
1672.16184	0.37308
1670.23317	0.37299
1668.30449	0.37340
1666.37582	0.37414
1664.44714	0.37436
1662.51846	0.37434
1660.58979	0.37468
1658.66111	0.37491
1656.73244	0.37420
1654.80376	0.37274
1652.87509	0.37221
1650.94641	0.37317
1649.01773	0.37386
1647.08906	0.37392
1645.16038	0.37448
1643.23171	0.37534
1641.30303	0.37573
1639.37436	0.37549
1637.44568	0.37486
1635.51700	0.37469
1633.58833	0.37549
1631.65965	0.37634
1629.73098	0.37644
1627.80230	0.37614
1625.87363	0.37570
1623.94495	0.37505
1622.01627	0.37455
1620.08760	0.37441
1618.15892	0.37466
1616.23025	0.37569
1614.30157	0.37725
1612.37290	0.37846
1610.44422	0.37910
1608.51554	0.37959
1606.58687	0.38005
1604.65819	0.38046
1602.72952	0.38083
1600.80084	0.38121
1598.87217	0.38156
1596.94349	0.38185
1595.01481	0.38211
1593.08614	0.38244
1591.15746	0.38283
1589.22879	0.38319
1587.30011	0.38349
1585.37144	0.38376
1583.44276	0.38405
1581.51408	0.38433
1579.58541	0.38434
1577.65673	0.38406
1575.72806	0.38413
1573.79938	0.38472
1571.87071	0.38498
1569.94203	0.38493
1568.01335	0.38530
1566.08468	0.38589
1564.15600	0.38615
1562.22733	0.38558
1560.29865	0.38437
1558.36998	0.38408
1556.44130	0.38527
1554.51262	0.38660
1552.58395	0.38736
1550.65527	0.38776
1548.72660	0.38805
1546.79792	0.38805
1544.86925	0.38750
1542.94057	0.38676
1541.01189	0.38644
1539.08322	0.38708
1537.15454	0.38823
1535.22587	0.38873
1533.29719	0.38886
1531.36852	0.38933
1529.43984	0.38963
1527.51116	0.38947
1525.58249	0.38923
1523.65381	0.38880
1521.72514	0.38838
1519.79646	0.38863
1517.86779	0.38924
1515.93911	0.38988
1514.01043	0.39050
1512.08176	0.39069
1510.15308	0.39021
1508.22441	0.38953
1506.29573	0.38975
1504.36706	0.39108
1502.43838	0.39214
1500.50970	0.39218
1498.58103	0.39183
1496.65235	0.39190
1494.72368	0.39236
1492.79500	0.39248
1490.86633	0.39213
1488.93765	0.39206
1487.00897	0.39263
1485.08030	0.39329
1483.15162	0.39355
1481.22295	0.39352
1479.29427	0.39331
1477.36560	0.39278
1475.43692	0.39199
1473.50824	0.39141
1471.57957	0.39147
1469.65089	0.39186
1467.72222	0.39184
1465.79354	0.39151
1463.86487	0.39155
1461.93619	0.39172
1460.00751	0.39108
1458.07884	0.39002
1456.15016	0.39007
1454.22149	0.39132
1452.29281	0.39231
1450.36414	0.39254
1448.43546	0.39263
1446.50678	0.39298
1444.57811	0.39342
1442.64943	0.39368
1440.72076	0.39359
1438.79208	0.39290
1436.86341	0.39232
1434.93473	0.39272
1433.00605	0.39340
1431.07738	0.39359
1429.14870	0.39368
1427.22003	0.39383
1425.29135	0.39373
1423.36268	0.39341
1421.43400	0.39277
1419.50532	0.39212
1417.57665	0.39222
1415.64797	0.39284
1413.71930	0.39320
1411.79062	0.39324
1409.86195	0.39319
1407.93327	0.39306
1406.00459	0.39290
1404.07592	0.39288
1402.14724	0.39287
1400.21857	0.39259
1398.28989	0.39220
1396.36122	0.39190
1394.43254	0.39190
1392.50386	0.39219
1390.57519	0.39214
1388.64651	0.39146
1386.71784	0.39079
1384.78916	0.39065
1382.86049	0.39083
1380.93181	0.39102
1379.00313	0.39109
1377.07446	0.39092
1375.14578	0.39062
1373.21711	0.39057
1371.28843	0.39074
1369.35976	0.39086
1367.43108	0.39085
1365.50240	0.39063
1363.57373	0.39024
1361.64505	0.39012
1359.71638	0.39037
1357.78770	0.39061
1355.85903	0.39066
1353.93035	0.39070
1352.00167	0.39081
1350.07300	0.39096
1348.14432	0.39114
1346.21565	0.39130
1344.28697	0.39137
1342.35830	0.39124
1340.42962	0.39099
1338.50094	0.39089
1336.57227	0.39105
1334.64359	0.39126
1332.71492	0.39136
1330.78624	0.39130
1328.85757	0.39115
1326.92889	0.39099
1325.00021	0.39086
1323.07154	0.39069
1321.14286	0.39045
1319.21419	0.39024
1317.28551	0.39014
1315.35684	0.39005
1313.42816	0.38987
1311.49948	0.38962
1309.57081	0.38932
1307.64213	0.38900
1305.71346	0.38869
1303.78478	0.38837
1301.85611	0.38803
1299.92743	0.38764
1297.99875	0.38722
1296.07008	0.38684
1294.14140	0.38652
1292.21273	0.38615
1290.28405	0.38562
1288.35538	0.38502
1286.42670	0.38451
1284.49802	0.38404
1282.56935	0.38350
1280.64067	0.38288
1278.71200	0.38217
1276.78332	0.38134
1274.85465	0.38038
1272.92597	0.37929
1270.99729	0.37795
1269.06862	0.37624
1267.13994	0.37428
1265.21127	0.37248
1263.28259	0.37121
1261.35392	0.37064
1259.42524	0.37065
1257.49656	0.37094
1255.56789	0.37114
1253.63921	0.37109
1251.71054	0.37074
1249.78186	0.37017
1247.85319	0.36950
1245.92451	0.36879
1243.99583	0.36803
1242.06716	0.36718
1240.13848	0.36625
1238.20981	0.36529
1236.28113	0.36426
1234.35246	0.36314
1232.42378	0.36204
1230.49510	0.36099
1228.56643	0.35996
1226.63775	0.35896
1224.70908	0.35802
1222.78040	0.35708
1220.85173	0.35612
1218.92305	0.35517
1216.99437	0.35424
1215.06570	0.35327
1213.13702	0.35229
1211.20835	0.35132
1209.27967	0.35032
1207.35100	0.34933
1205.42232	0.34842
1203.49364	0.34753
1201.56497	0.34663
1199.63629	0.34579
1197.70762	0.34494
1195.77894	0.34400
1193.85027	0.34298
1191.92159	0.34196
1189.99291	0.34090
1188.06424	0.33972
1186.13556	0.33846
1184.20689	0.33719
1182.27821	0.33588
1180.34954	0.33454
1178.42086	0.33325
1176.49218	0.33196
1174.56351	0.33059
1172.63483	0.32916
1170.70616	0.32773
1168.77748	0.32627
1166.84881	0.32478
1164.92013	0.32326
1162.99145	0.32175
1161.06278	0.32030
1159.13410	0.31896
1157.20543	0.31767
1155.27675	0.31636
1153.34808	0.31510
1151.41940	0.31390
1149.49072	0.31274
1147.56205	0.31161
1145.63337	0.31049
1143.70470	0.30930
1141.77602	0.30810
1139.84735	0.30694
1137.91867	0.30578
1135.98999	0.30457
1134.06132	0.30330
1132.13264	0.30194
1130.20397	0.30050
1128.27529	0.29907
1126.34662	0.29765
1124.41794	0.29619
1122.48926	0.29468
1120.56059	0.29314
1118.63191	0.29159
1116.70324	0.29003
1114.77456	0.28845
1112.84589	0.28680
1110.91721	0.28511
1108.98853	0.28349
1107.05986	0.28200
1105.13118	0.28059
1103.20251	0.27916
1101.27383	0.27770
1099.34516	0.27624
1097.41648	0.27479
1095.48780	0.27344
1093.55913	0.27229
1091.63045	0.27120
1089.70178	0.27006
1087.77310	0.26896
1085.84443	0.26792
1083.91575	0.26681
1081.98707	0.26567
1080.05840	0.26463
1078.12972	0.26369
1076.20105	0.26284
1074.27237	0.26210
1072.34370	0.26145
1070.41502	0.26094
1068.48634	0.26065
1066.55767	0.26054
1064.62899	0.26051
1062.70032	0.26051
1060.77164	0.26063
1058.84297	0.26083
1056.91429	0.26108
1054.98561	0.26137
1053.05694	0.26177
1051.12826	0.26227
1049.19959	0.26279
1047.27091	0.26336
1045.34224	0.26404
1043.41356	0.26482
1041.48488	0.26559
1039.55621	0.26632
1037.62753	0.26708
1035.69886	0.26784
1033.77018	0.26860
1031.84151	0.26937
1029.91283	0.27015
1027.98415	0.27093
1026.05548	0.27173
1024.12680	0.27258
1022.19813	0.27351
1020.26945	0.27447
1018.34078	0.27546
1016.41210	0.27654
1014.48342	0.27783
1012.55475	0.27926
1010.62607	0.28068
1008.69740	0.28209
1006.76872	0.28351
1004.84005	0.28487
1002.91137	0.28607
1000.98269	0.28712
999.05402	0.28803
997.12534	0.28883
995.19667	0.28951
993.26799	0.29016
991.33932	0.29083
989.41064	0.29148
987.48196	0.29211
985.55329	0.29270
983.62461	0.29321
981.69594	0.29362
979.76726	0.29391
977.83859	0.29402
975.90991	0.29404
973.98123	0.29407
972.05256	0.29414
970.12388	0.29415
968.19521	0.29407
966.26653	0.29391
964.33786	0.29370
962.40918	0.29347
960.48050	0.29324
958.55183	0.29297
956.62315	0.29262
954.69448	0.29218
952.76580	0.29171
950.83713	0.29123
948.90845	0.29070
946.97977	0.29013
945.05110	0.28956
943.12242	0.28904
941.19375	0.28854
939.26507	0.28794
937.33640	0.28721
935.40772	0.28652
933.47904	0.28592
931.55037	0.28531
929.62169	0.28463
927.69302	0.28394
925.76434	0.28329
923.83567	0.28261
921.90699	0.28191
919.97831	0.28124
918.04964	0.28057
916.12096	0.27977
914.19229	0.27891
912.26361	0.27812
910.33494	0.27741
908.40626	0.27667
906.47758	0.27579
904.54891	0.27481
902.62023	0.27380
900.69156	0.27283
898.76288	0.27195
896.83421	0.27111
894.90553	0.27025
892.97685	0.26938
891.04818	0.26855
889.11950	0.26769
887.19083	0.26673
885.26215	0.26574
883.33348	0.26486
881.40480	0.26404
879.47612	0.26319
877.54745	0.26239
875.61877	0.26165
873.69010	0.26091
871.76142	0.26009
869.83275	0.25922
867.90407	0.25837
865.97539	0.25754
864.04672	0.25669
862.11804	0.25585
860.18937	0.25503
858.26069	0.25416
856.33202	0.25319
854.40334	0.25219
852.47466	0.25117
850.54599	0.25015
848.61731	0.24921
846.68864	0.24836
844.75996	0.24752
842.83129	0.24661
840.90261	0.24567
838.97394	0.24473
837.04526	0.24377
835.11658	0.24277
833.18791	0.24176
831.25923	0.24074
829.33056	0.23960
827.40188	0.23834
825.47321	0.23711
823.54453	0.23597
821.61585	0.23488
819.68718	0.23388
817.75850	0.23292
815.82983	0.23190
813.90115	0.23086
811.97248	0.22983
810.04380	0.22879
808.11512	0.22788
806.18645	0.22708
804.25777	0.22624
802.32910	0.22540
800.40042	0.22467
798.47175	0.22410
796.54307	0.22370
794.61439	0.22342
792.68572	0.22308
790.75704	0.22266
788.82837	0.22231
786.89969	0.22201
784.97102	0.22164
783.04234	0.22119
781.11366	0.22070
779.18499	0.22020
777.25631	0.21970
775.32764	0.21926
773.39896	0.21880
771.47029	0.21819
769.54161	0.21748
767.61293	0.21685
765.68426	0.21628
763.75558	0.21568
761.82691	0.21498
759.89823	0.21411
757.96956	0.21318
756.04088	0.21232
754.11220	0.21149
752.18353	0.21062
750.25485	0.20970
748.32618	0.20875
746.39750	0.20774
744.46883	0.20671
742.54015	0.20575
740.61147	0.20491
738.68280	0.20415
736.75412	0.20342
734.82545	0.20269
732.89677	0.20193
730.96810	0.20117
729.03942	0.20039
727.11074	0.19959
725.18207	0.19886
723.25339	0.19815
721.32472	0.19738
719.39604	0.19659
717.46737	0.19586
715.53869	0.19511
713.61001	0.19424
711.68134	0.19336
709.75266	0.19254
707.82399	0.19175
705.89531	0.19097
703.96664	0.19016
702.03796	0.18934
700.10928	0.18855
698.18061	0.18774
696.25193	0.18691
694.32326	0.18605
692.39458	0.18515
690.46591	0.18425
688.53723	0.18338
686.60855	0.18245
684.67988	0.18145
682.75120	0.18047
680.82253	0.17945
678.89385	0.17837
676.96518	0.17721
675.03650	0.17591
673.10782	0.17451
671.17915	0.17305
669.25047	0.17147
667.32180	0.16994
665.39312	0.16856
663.46445	0.16709
661.53577	0.16546
659.60709	0.16387
657.67842	0.16239
655.74974	0.16090
653.82107	0.15936
651.89239	0.15783
649.96372	0.15634
648.03504	0.15481
646.10636	0.15322
644.17769	0.15155
642.24901	0.14980
640.32034	0.14793
638.39166	0.14603
636.46299	0.14419
634.53431	0.14243
632.60563	0.14060
630.67696	0.13871
628.74828	0.13686
626.81961	0.13510
624.89093	0.13342
622.96226	0.13174
621.03358	0.13005
619.10490	0.12841
617.17623	0.12683
615.24755	0.12506
613.31888	0.12302
611.39020	0.12108
609.46153	0.11937
607.53285	0.11770
605.60417	0.11603
603.67550	0.11445
601.74682	0.11289
599.81815	0.11145
597.88947	0.11015
595.96080	0.10885
594.03212	0.10754
592.10344	0.10631
590.17477	0.10517
588.24609	0.10411
586.31742	0.10307
584.38874	0.10200
582.46007	0.10093
580.53139	0.09993
578.60271	0.09890
576.67404	0.09774
574.74536	0.09652
572.81669	0.09538
570.88801	0.09440
568.95934	0.09353
567.03066	0.09267
565.10198	0.09183
563.17331	0.09104
561.24463	0.09030
559.31596	0.08958
557.38728	0.08889
555.45861	0.08822
553.52993	0.08756
551.60125	0.08697
549.67258	0.08640
547.74390	0.08576
545.81523	0.08512
543.88655	0.08461
541.95788	0.08420
540.02920	0.08364
538.10052	0.08300
536.17185	0.08247
534.24317	0.08195
532.31450	0.08129
530.38582	0.08056
528.45715	0.07984
526.52847	0.07918
524.59979	0.07855
522.67112	0.07789
520.74244	0.07718
518.81377	0.07639
516.88509	0.07553
514.95642	0.07463
513.02774	0.07375
511.09906	0.07292
509.17039	0.07208
507.24171	0.07122
505.31304	0.07035
503.38436	0.06938
501.45569	0.06829
499.52701	0.06714
497.59833	0.06596
495.66966	0.06471
493.74098	0.06336
491.81231	0.06210
489.88363	0.06097
487.95496	0.05980
486.02628	0.05849
484.09760	0.05716
482.16893	0.05589
480.24025	0.05470
478.31158	0.05353
476.38290	0.05229
474.45423	0.05104
472.52555	0.04988
470.59687	0.04888
468.66820	0.04803
466.73952	0.04732
464.81085	0.04668
462.88217	0.04614
460.95350	0.04572
459.02482	0.04535
457.09614	0.04512
455.16747	0.04503
453.23879	0.04490
451.31012	0.04473
449.38144	0.04454
447.45277	0.04431
445.52409	0.04403
443.59541	0.04365
441.66674	0.04302
439.73806	0.04222
437.80939	0.04144
435.88071	0.04070
433.95204	0.03976
432.02336	0.03855
430.09468	0.03724
428.16601	0.03599
426.23733	0.03481
424.30866	0.03363
422.37998	0.03237
420.45131	0.03096
418.52263	0.02951
416.59395	0.02813
414.66528	0.02675
412.73660	0.02544
410.80793	0.02431
408.87925	0.02321
406.95058	0.02199
405.02190	0.02075
403.09322	0.01958
401.16455	0.01839
399.23587	0.01725
397.30720	0.01619
395.37852	0.01514
393.44985	0.01412
391.52117	0.01320
389.59249	0.01239
387.66382	0.01164
385.73514	0.01095
383.80647	0.01032
381.87779	0.00964
379.94912	0.00885
378.02044	0.00802
376.09176	0.00719
374.16309	0.00641
372.23441	0.00576
370.30574	0.00528
368.37706	0.00492
