7496.76250	0.00122
7494.83382	0.00121
7492.90514	0.00123
7490.97647	0.00126
7489.04779	0.00127
7487.11912	0.00127
7485.19044	0.00127
7483.26177	0.00128
7481.33309	0.00128
7479.40441	0.00128
7477.47574	0.00128
7475.54706	0.00130
7473.61839	0.00130
7471.68971	0.00129
7469.76104	0.00129
7467.83236	0.00130
7465.90368	0.00130
7463.97501	0.00131
7462.04633	0.00132
7460.11766	0.00132
7458.18898	0.00133
7456.26031	0.00134
7454.33163	0.00134
7452.40295	0.00136
7450.47428	0.00137
7448.54560	0.00138
7446.61693	0.00138
7444.68825	0.00137
7442.75958	0.00136
7440.83090	0.00138
7438.90222	0.00138
7436.97355	0.00138
7435.04487	0.00137
7433.11620	0.00137
7431.18752	0.00136
7429.25885	0.00136
7427.33017	0.00137
7425.40149	0.00138
7423.47282	0.00138
7421.54414	0.00140
7419.61547	0.00141
7417.68679	0.00141
7415.75812	0.00142
7413.82944	0.00143
7411.90076	0.00143
7409.97209	0.00142
7408.04341	0.00141
7406.11474	0.00142
7404.18606	0.00142
7402.25739	0.00143
7400.32871	0.00144
7398.40003	0.00144
7396.47136	0.00143
7394.54268	0.00143
7392.61401	0.00144
7390.68533	0.00144
7388.75666	0.00144
7386.82798	0.00145
7384.89930	0.00146
7382.97063	0.00148
7381.04195	0.00148
7379.11328	0.00149
7377.18460	0.00150
7375.25593	0.00149
7373.32725	0.00149
7371.39857	0.00149
7369.46990	0.00150
7367.54122	0.00150
7365.61255	0.00151
7363.68387	0.00152
7361.75520	0.00153
7359.82652	0.00152
7357.89784	0.00151
7355.96917	0.00150
7354.04049	0.00151
7352.11182	0.00153
7350.18314	0.00155
7348.25447	0.00155
7346.32579	0.00155
7344.39711	0.00156
7342.46844	0.00155
7340.53976	0.00154
7338.61109	0.00155
7336.68241	0.00155
7334.75374	0.00156
7332.82506	0.00157
7330.89638	0.00157
7328.96771	0.00157
7327.03903	0.00157
7325.11036	0.00158
7323.18168	0.00158
7321.25301	0.00159
7319.32433	0.00160
7317.39565	0.00162
7315.46698	0.00163
7313.53830	0.00163
7311.60963	0.00163
7309.68095	0.00164
7307.75228	0.00165
7305.82360	0.00165
7303.89492	0.00165
7301.96625	0.00164
7300.03757	0.00165
7298.10890	0.00167
7296.18022	0.00168
7294.25155	0.00168
7292.32287	0.00167
7290.39419	0.00166
7288.46552	0.00165
7286.53684	0.00165
7284.60817	0.00165
7282.67949	0.00167
7280.75082	0.00169
7278.82214	0.00170
7276.89346	0.00169
7274.96479	0.00168
7273.03611	0.00168
7271.10744	0.00168
7269.17876	0.00168
7267.25009	0.00169
7265.32141	0.00170
7263.39273	0.00171
7261.46406	0.00172
7259.53538	0.00173
7257.60671	0.00174
7255.67803	0.00174
7253.74936	0.00175
7251.82068	0.00175
7249.89200	0.00175
7247.96333	0.00176
7246.03465	0.00175
7244.10598	0.00176
7242.17730	0.00177
7240.24863	0.00179
7238.31995	0.00180
7236.39127	0.00181
7234.46260	0.00179
7232.53392	0.00178
7230.60525	0.00179
7228.67657	0.00180
7226.74790	0.00181
7224.81922	0.00181
7222.89054	0.00181
7220.96187	0.00181
7219.03319	0.00181
7217.10452	0.00180
7215.17584	0.00181
7213.24717	0.00181
7211.31849	0.00181
7209.38981	0.00181
7207.46114	0.00182
7205.53246	0.00184
7203.60379	0.00186
7201.67511	0.00187
7199.74644	0.00186
7197.81776	0.00186
7195.88908	0.00187
7193.96041	0.00187
7192.03173	0.00188
7190.10306	0.00188
7188.17438	0.00188
7186.24571	0.00188
7184.31703	0.00189
7182.38835	0.00189
7180.45968	0.00189
7178.53100	0.00191
7176.60233	0.00193
7174.67365	0.00194
7172.74498	0.00193
7170.81630	0.00193
7168.88762	0.00193
7166.95895	0.00195
7165.03027	0.00197
7163.10160	0.00197
7161.17292	0.00197
7159.24425	0.00198
7157.31557	0.00198
7155.38689	0.00198
7153.45822	0.00198
7151.52954	0.00197
7149.60087	0.00197
7147.67219	0.00198
7145.74352	0.00198
7143.81484	0.00199
7141.88616	0.00200
7139.95749	0.00201
7138.02881	0.00202
7136.10014	0.00203
7134.17146	0.00202
7132.24279	0.00202
7130.31411	0.00203
7128.38543	0.00204
7126.45676	0.00206
7124.52808	0.00207
7122.59941	0.00207
7120.67073	0.00207
7118.74206	0.00206
7116.81338	0.00206
7114.88470	0.00207
7112.95603	0.00209
7111.02735	0.00208
7109.09868	0.00208
7107.17000	0.00208
7105.24133	0.00209
7103.31265	0.00210
7101.38397	0.00211
7099.45530	0.00211
7097.52662	0.00213
7095.59795	0.00214
7093.66927	0.00214
7091.74060	0.00213
7089.81192	0.00213
7087.88324	0.00214
7085.95457	0.00215
7084.02589	0.00215
7082.09722	0.00215
7080.16854	0.00216
7078.23987	0.00217
7076.31119	0.00217
7074.38251	0.00216
7072.45384	0.00216
7070.52516	0.00218
7068.59649	0.00220
7066.66781	0.00221
7064.73914	0.00221
7062.81046	0.00221
7060.88178	0.00222
7058.95311	0.00222
7057.02443	0.00223
7055.09576	0.00223
7053.16708	0.00223
7051.23841	0.00223
7049.30973	0.00223
7047.38105	0.00224
7045.45238	0.00225
7043.52370	0.00225
7041.59503	0.00225
7039.66635	0.00226
7037.73768	0.00228
7035.80900	0.00228
7033.88032	0.00226
7031.95165	0.00227
7030.02297	0.00228
7028.09430	0.00228
7026.16562	0.00229
7024.23695	0.00231
7022.30827	0.00231
7020.37959	0.00231
7018.45092	0.00232
7016.52224	0.00233
7014.59357	0.00233
7012.66489	0.00233
7010.73622	0.00234
7008.80754	0.00235
7006.87886	0.00236
7004.95019	0.00236
7003.02151	0.00235
7001.09284	0.00235
6999.16416	0.00237
6997.23549	0.00239
6995.30681	0.00239
6993.37813	0.00240
6991.44946	0.00242
6989.52078	0.00243
6987.59211	0.00241
6985.66343	0.00240
6983.73476	0.00240
6981.80608	0.00241
6979.87740	0.00239
6977.94873	0.00239
6976.02005	0.00240
6974.09138	0.00243
6972.16270	0.00246
6970.23403	0.00246
6968.30535	0.00247
6966.37667	0.00247
6964.44800	0.00246
6962.51932	0.00246
6960.59065	0.00247
6958.66197	0.00248
6956.73330	0.00250
6954.80462	0.00252
6952.87594	0.00252
6950.94727	0.00251
6949.01859	0.00251
6947.08992	0.00251
6945.16124	0.00251
6943.23257	0.00252
6941.30389	0.00253
6939.37521	0.00254
6937.44654	0.00254
6935.51786	0.00254
6933.58919	0.00255
6931.66051	0.00257
6929.73184	0.00258
6927.80316	0.00258
6925.87448	0.00258
6923.94581	0.00260
6922.01713	0.00261
6920.08846	0.00261
6918.15978	0.00261
6916.23111	0.00261
6914.30243	0.00261
6912.37375	0.00261
6910.44508	0.00262
6908.51640	0.00263
6906.58773	0.00264
6904.65905	0.00264
6902.73038	0.00265
6900.80170	0.00266
6898.87302	0.00267
6896.94435	0.00266
6895.01567	0.00265
6893.08700	0.00266
6891.15832	0.00267
6889.22965	0.00269
6887.30097	0.00271
6885.37229	0.00272
6883.44362	0.00271
6881.51494	0.00271
6879.58627	0.00272
6877.65759	0.00272
6875.72892	0.00273
6873.80024	0.00275
6871.87156	0.00277
6869.94289	0.00277
6868.01421	0.00276
6866.08554	0.00276
6864.15686	0.00275
6862.22819	0.00276
6860.29951	0.00278
6858.37083	0.00280
6856.44216	0.00281
6854.51348	0.00280
6852.58481	0.00280
6850.65613	0.00280
6848.72746	0.00280
6846.79878	0.00282
6844.87010	0.00284
6842.94143	0.00285
6841.01275	0.00285
6839.08408	0.00285
6837.15540	0.00286
6835.22673	0.00287
6833.29805	0.00288
6831.36937	0.00288
6829.44070	0.00288
6827.51202	0.00289
6825.58335	0.00289
6823.65467	0.00290
6821.72600	0.00291
6819.79732	0.00291
6817.86864	0.00292
6815.93997	0.00293
6814.01129	0.00293
6812.08262	0.00294
6810.15394	0.00296
6808.22527	0.00297
6806.29659	0.00298
6804.36791	0.00298
6802.43924	0.00300
6800.51056	0.00302
6798.58189	0.00302
6796.65321	0.00300
6794.72454	0.00299
6792.79586	0.00300
6790.86718	0.00302
6788.93851	0.00303
6787.00983	0.00304
6785.08116	0.00305
6783.15248	0.00305
6781.22381	0.00305
6779.29513	0.00305
6777.36645	0.00306
6775.43778	0.00306
6773.50910	0.00306
6771.58043	0.00306
6769.65175	0.00309
6767.72308	0.00310
6765.79440	0.00310
6763.86572	0.00312
6761.93705	0.00313
6760.00837	0.00313
6758.07970	0.00312
6756.15102	0.00313
6754.22235	0.00314
6752.29367	0.00316
6750.36499	0.00316
6748.43632	0.00316
6746.50764	0.00316
6744.57897	0.00316
6742.65029	0.00318
6740.72162	0.00320
6738.79294	0.00321
6736.86426	0.00321
6734.93559	0.00321
6733.00691	0.00323
6731.07824	0.00324
6729.14956	0.00324
6727.22089	0.00323
6725.29221	0.00323
6723.36353	0.00325
6721.43486	0.00326
6719.50618	0.00327
6717.57751	0.00329
6715.64883	0.00329
6713.72016	0.00330
6711.79148	0.00330
6709.86280	0.00332
6707.93413	0.00333
6706.00545	0.00333
6704.07678	0.00333
6702.14810	0.00333
6700.21943	0.00333
6698.29075	0.00333
6696.36207	0.00334
6694.43340	0.00336
6692.50472	0.00338
6690.57605	0.00339
6688.64737	0.00340
6686.71870	0.00341
6684.79002	0.00340
6682.86134	0.00340
6680.93267	0.00340
6679.00399	0.00342
6677.07532	0.00343
6675.14664	0.00345
6673.21797	0.00346
6671.28929	0.00346
6669.36061	0.00346
6667.43194	0.00345
6665.50326	0.00346
6663.57459	0.00348
6661.64591	0.00350
6659.71724	0.00350
6657.78856	0.00350
6655.85988	0.00351
6653.93121	0.00352
6652.00253	0.00353
6650.07386	0.00355
6648.14518	0.00357
6646.21651	0.00358
6644.28783	0.00356
6642.35915	0.00356
6640.43048	0.00358
6638.50180	0.00359
6636.57313	0.00359
6634.64445	0.00360
6632.71578	0.00361
6630.78710	0.00362
6628.85842	0.00363
6626.92975	0.00365
6625.00107	0.00367
6623.07240	0.00368
6621.14372	0.00368
6619.21505	0.00368
6617.28637	0.00368
6615.35769	0.00368
6613.42902	0.00370
6611.50034	0.00371
6609.57167	0.00372
6607.64299	0.00373
6605.71432	0.00375
6603.78564	0.00375
6601.85696	0.00373
6599.92829	0.00371
6597.99961	0.00373
6596.07094	0.00375
6594.14226	0.00378
6592.21359	0.00380
6590.28491	0.00380
6588.35623	0.00380
6586.42756	0.00380
6584.49888	0.00381
6582.57021	0.00383
6580.64153	0.00384
6578.71286	0.00385
6576.78418	0.00386
6574.85550	0.00387
6572.92683	0.00389
6570.99815	0.00389
6569.06948	0.00390
6567.14080	0.00390
6565.21213	0.00389
6563.28345	0.00390
6561.35477	0.00392
6559.42610	0.00394
6557.49742	0.00394
6555.56875	0.00396
6553.64007	0.00399
6551.71140	0.00401
6549.78272	0.00401
6547.85404	0.00401
6545.92537	0.00402
6543.99669	0.00403
6542.06802	0.00403
6540.13934	0.00404
6538.21067	0.00406
6536.28199	0.00407
6534.35331	0.00407
6532.42464	0.00407
6530.49596	0.00409
6528.56729	0.00411
6526.63861	0.00410
6524.70994	0.00410
6522.78126	0.00411
6520.85258	0.00413
6518.92391	0.00414
6516.99523	0.00414
6515.06656	0.00413
6513.13788	0.00414
6511.20921	0.00415
6509.28053	0.00414
6507.35185	0.00414
6505.42318	0.00416
6503.49450	0.00418
6501.56583	0.00419
6499.63715	0.00421
6497.70848	0.00422
6495.77980	0.00423
6493.85112	0.00424
6491.92245	0.00425
6489.99377	0.00426
6488.06510	0.00426
6486.13642	0.00428
6484.20775	0.00431
6482.27907	0.00434
6480.35039	0.00437
6478.42172	0.00436
6476.49304	0.00435
6474.56437	0.00435
6472.63569	0.00436
6470.70702	0.00436
6468.77834	0.00438
6466.84966	0.00440
6464.92099	0.00440
6462.99231	0.00440
6461.06364	0.00439
6459.13496	0.00440
6457.20629	0.00442
6455.27761	0.00444
6453.34893	0.00445
6451.42026	0.00446
6449.49158	0.00447
6447.56291	0.00447
6445.63423	0.00448
6443.70556	0.00449
6441.77688	0.00449
6439.84820	0.00450
6437.91953	0.00451
6435.99085	0.00452
6434.06218	0.00453
6432.13350	0.00454
6430.20483	0.00456
6428.27615	0.00457
6426.34747	0.00458
6424.41880	0.00460
6422.49012	0.00462
6420.56145	0.00463
6418.63277	0.00464
6416.70410	0.00465
6414.77542	0.00466
6412.84674	0.00467
6410.91807	0.00466
6408.98939	0.00467
6407.06072	0.00468
6405.13204	0.00469
6403.20337	0.00470
6401.27469	0.00470
6399.34601	0.00471
6397.41734	0.00473
6395.48866	0.00475
6393.55999	0.00476
6391.63131	0.00477
6389.70264	0.00478
6387.77396	0.00478
6385.84528	0.00480
6383.91661	0.00481
6381.98793	0.00481
6380.05926	0.00482
6378.13058	0.00484
6376.20191	0.00487
6374.27323	0.00488
6372.34455	0.00489
6370.41588	0.00488
6368.48720	0.00487
6366.55853	0.00488
6364.62985	0.00489
6362.70118	0.00491
6360.77250	0.00493
6358.84382	0.00495
6356.91515	0.00497
6354.98647	0.00498
6353.05780	0.00499
6351.12912	0.00500
6349.20045	0.00500
6347.27177	0.00502
6345.34309	0.00504
6343.41442	0.00505
6341.48574	0.00505
6339.55707	0.00505
6337.62839	0.00506
6335.69972	0.00507
6333.77104	0.00508
6331.84236	0.00509
6329.91369	0.00511
6327.98501	0.00513
6326.05634	0.00514
6324.12766	0.00513
6322.19899	0.00514
6320.27031	0.00517
6318.34163	0.00520
6316.41296	0.00521
6314.48428	0.00521
6312.55561	0.00522
6310.62693	0.00524
6308.69826	0.00526
6306.76958	0.00526
6304.84090	0.00526
6302.91223	0.00526
6300.98355	0.00527
6299.05488	0.00530
6297.12620	0.00532
6295.19753	0.00532
6293.26885	0.00532
6291.34017	0.00534
6289.41150	0.00537
6287.48282	0.00539
6285.55415	0.00539
6283.62547	0.00539
6281.69680	0.00539
6279.76812	0.00540
6277.83944	0.00542
6275.91077	0.00544
6273.98209	0.00546
6272.05342	0.00548
6270.12474	0.00548
6268.19607	0.00548
6266.26739	0.00550
6264.33871	0.00553
6262.41004	0.00554
6260.48136	0.00555
6258.55269	0.00556
6256.62401	0.00556
6254.69534	0.00557
6252.76666	0.00558
6250.83798	0.00559
6248.90931	0.00561
6246.98063	0.00564
6245.05196	0.00565
6243.12328	0.00565
6241.19461	0.00566
6239.26593	0.00568
6237.33725	0.00569
6235.40858	0.00569
6233.47990	0.00569
6231.55123	0.00571
6229.62255	0.00573
6227.69388	0.00576
6225.76520	0.00578
6223.83652	0.00580
6221.90785	0.00581
6219.97917	0.00580
6218.05050	0.00580
6216.12182	0.00581
6214.19315	0.00582
6212.26447	0.00584
6210.33579	0.00586
6208.40712	0.00589
6206.47844	0.00591
6204.54977	0.00592
6202.62109	0.00592
6200.69242	0.00595
6198.76374	0.00598
6196.83506	0.00600
6194.90639	0.00600
6192.97771	0.00599
6191.04904	0.00599
6189.12036	0.00600
6187.19169	0.00603
6185.26301	0.00605
6183.33433	0.00607
6181.40566	0.00609
6179.47698	0.00612
6177.54831	0.00613
6175.61963	0.00612
6173.69096	0.00610
6171.76228	0.00610
6169.83360	0.00612
6167.90493	0.00615
6165.97625	0.00617
6164.04758	0.00619
6162.11890	0.00622
6160.19023	0.00624
6158.26155	0.00624
6156.33287	0.00624
6154.40420	0.00626
6152.47552	0.00629
6150.54685	0.00632
6148.61817	0.00635
6146.68950	0.00636
6144.76082	0.00637
6142.83214	0.00636
6140.90347	0.00636
6138.97479	0.00637
6137.04612	0.00639
6135.11744	0.00640
6133.18877	0.00641
6131.26009	0.00642
6129.33141	0.00643
6127.40274	0.00644
6125.47406	0.00645
6123.54539	0.00646
6121.61671	0.00649
6119.68804	0.00652
6117.75936	0.00655
6115.83068	0.00655
6113.90201	0.00655
6111.97333	0.00655
6110.04466	0.00658
6108.11598	0.00660
6106.18731	0.00661
6104.25863	0.00663
6102.32995	0.00667
6100.40128	0.00669
6098.47260	0.00670
6096.54393	0.00670
6094.61525	0.00671
6092.68658	0.00673
6090.75790	0.00675
6088.82922	0.00676
6086.90055	0.00676
6084.97187	0.00678
6083.04320	0.00680
6081.11452	0.00683
6079.18585	0.00686
6077.25717	0.00688
6075.32849	0.00688
6073.39982	0.00689
6071.47114	0.00691
6069.54247	0.00694
6067.61379	0.00695
6065.68512	0.00695
6063.75644	0.00696
6061.82776	0.00697
6059.89909	0.00698
6057.97041	0.00701
6056.04174	0.00702
6054.11306	0.00703
6052.18439	0.00706
6050.25571	0.00708
6048.32703	0.00709
6046.39836	0.00710
6044.46968	0.00711
6042.54101	0.00713
6040.61233	0.00716
6038.68366	0.00718
6036.75498	0.00718
6034.82630	0.00719
6032.89763	0.00721
6030.96895	0.00722
6029.04028	0.00724
6027.11160	0.00725
6025.18293	0.00726
6023.25425	0.00727
6021.32557	0.00728
6019.39690	0.00729
6017.46822	0.00730
6015.53955	0.00729
6013.61087	0.00730
6011.68220	0.00734
6009.75352	0.00738
6007.82484	0.00739
6005.89617	0.00740
6003.96749	0.00741
6002.03882	0.00744
6000.11014	0.00747
5998.18147	0.00748
5996.25279	0.00749
5994.32411	0.00750
5992.39544	0.00753
5990.46676	0.00756
5988.53809	0.00759
5986.60941	0.00762
5984.68074	0.00764
5982.75206	0.00764
5980.82338	0.00763
5978.89471	0.00764
5976.96603	0.00766
5975.03736	0.00768
5973.10868	0.00770
5971.18001	0.00772
5969.25133	0.00774
5967.32265	0.00776
5965.39398	0.00777
5963.46530	0.00778
5961.53663	0.00779
5959.60795	0.00780
5957.67928	0.00781
5955.75060	0.00784
5953.82192	0.00787
5951.89325	0.00789
5949.96457	0.00789
5948.03590	0.00791
5946.10722	0.00793
5944.17855	0.00796
5942.24987	0.00800
5940.32119	0.00801
5938.39252	0.00803
5936.46384	0.00805
5934.53517	0.00806
5932.60649	0.00806
5930.67782	0.00807
5928.74914	0.00810
5926.82046	0.00812
5924.89179	0.00814
5922.96311	0.00816
5921.03444	0.00818
5919.10576	0.00820
5917.17709	0.00823
5915.24841	0.00824
5913.31973	0.00825
5911.39106	0.00826
5909.46238	0.00829
5907.53371	0.00831
5905.60503	0.00832
5903.67636	0.00833
5901.74768	0.00836
5899.81900	0.00840
5897.89033	0.00844
5895.96165	0.00845
5894.03298	0.00845
5892.10430	0.00845
5890.17563	0.00845
5888.24695	0.00846
5886.31827	0.00847
5884.38960	0.00848
5882.46092	0.00850
5880.53225	0.00853
5878.60357	0.00855
5876.67490	0.00858
5874.74622	0.00860
5872.81755	0.00863
5870.88887	0.00866
5868.96019	0.00867
5867.03152	0.00868
5865.10284	0.00870
5863.17417	0.00872
5861.24549	0.00874
5859.31682	0.00876
5857.38814	0.00878
5855.45946	0.00880
5853.53079	0.00881
5851.60211	0.00882
5849.67344	0.00884
5847.74476	0.00885
5845.81609	0.00887
5843.88741	0.00890
5841.95873	0.00893
5840.03006	0.00894
5838.10138	0.00895
5836.17271	0.00895
5834.24403	0.00896
5832.31536	0.00899
5830.38668	0.00902
5828.45800	0.00904
5826.52933	0.00906
5824.60065	0.00909
5822.67198	0.00912
5820.74330	0.00913
5818.81463	0.00916
5816.88595	0.00920
5814.95727	0.00923
5813.02860	0.00924
5811.09992	0.00926
5809.17125	0.00927
5807.24257	0.00928
5805.31390	0.00929
5803.38522	0.00932
5801.45654	0.00934
5799.52787	0.00934
5797.59919	0.00935
5795.67052	0.00937
5793.74184	0.00938
5791.81317	0.00940
5789.88449	0.00943
5787.95581	0.00945
5786.02714	0.00947
5784.09846	0.00951
5782.16979	0.00956
5780.24111	0.00959
5778.31244	0.00961
5776.38376	0.00963
5774.45508	0.00964
5772.52641	0.00964
5770.59773	0.00966
5768.66906	0.00969
5766.74038	0.00970
5764.81171	0.00971
5762.88303	0.00973
5760.95435	0.00976
5759.02568	0.00979
5757.09700	0.00982
5755.16833	0.00984
5753.23965	0.00986
5751.31098	0.00988
5749.38230	0.00990
5747.45362	0.00991
5745.52495	0.00993
5743.59627	0.00995
5741.66760	0.00996
5739.73892	0.00998
5737.81025	0.01001
5735.88157	0.01005
5733.95289	0.01009
5732.02422	0.01010
5730.09554	0.01009
5728.16687	0.01009
5726.23819	0.01010
5724.30952	0.01013
5722.38084	0.01017
5720.45216	0.01021
5718.52349	0.01023
5716.59481	0.01023
5714.66614	0.01024
5712.73746	0.01026
5710.80879	0.01029
5708.88011	0.01032
5706.95143	0.01035
5705.02276	0.01037
5703.09408	0.01040
5701.16541	0.01042
5699.23673	0.01044
5697.30806	0.01046
5695.37938	0.01046
5693.45070	0.01048
5691.52203	0.01051
5689.59335	0.01053
5687.66468	0.01056
5685.73600	0.01058
5683.80733	0.01060
5681.87865	0.01062
5679.94997	0.01064
5678.02130	0.01067
5676.09262	0.01068
5674.16395	0.01070
5672.23527	0.01074
5670.30660	0.01079
5668.37792	0.01083
5666.44924	0.01086
5664.52057	0.01088
5662.59189	0.01089
5660.66322	0.01090
5658.73454	0.01093
5656.80587	0.01095
5654.87719	0.01096
5652.94851	0.01095
5651.01984	0.01096
5649.09116	0.01099
5647.16249	0.01103
5645.23381	0.01107
5643.30514	0.01111
5641.37646	0.01114
5639.44778	0.01115
5637.51911	0.01115
5635.59043	0.01115
5633.66176	0.01117
5631.73308	0.01121
5629.80441	0.01124
5627.87573	0.01126
5625.94705	0.01129
5624.01838	0.01132
5622.08970	0.01134
5620.16103	0.01134
5618.23235	0.01136
5616.30368	0.01139
5614.37500	0.01142
5612.44632	0.01145
5610.51765	0.01150
5608.58897	0.01153
5606.66030	0.01152
5604.73162	0.01154
5602.80295	0.01158
5600.87427	0.01161
5598.94559	0.01163
5597.01692	0.01166
5595.08824	0.01170
5593.15957	0.01172
5591.23089	0.01175
5589.30222	0.01177
5587.37354	0.01179
5585.44486	0.01179
5583.51619	0.01180
5581.58751	0.01181
5579.65884	0.01184
5577.73016	0.01188
5575.80149	0.01190
5573.87281	0.01193
5571.94413	0.01196
5570.01546	0.01198
5568.08678	0.01200
5566.15811	0.01203
5564.22943	0.01207
5562.30076	0.01210
5560.37208	0.01212
5558.44340	0.01215
5556.51473	0.01218
5554.58605	0.01219
5552.65738	0.01220
5550.72870	0.01223
5548.80003	0.01226
5546.87135	0.01228
5544.94267	0.01231
5543.01400	0.01233
5541.08532	0.01235
5539.15665	0.01237
5537.22797	0.01238
5535.29930	0.01240
5533.37062	0.01243
5531.44194	0.01247
5529.51327	0.01250
5527.58459	0.01253
5525.65592	0.01255
5523.72724	0.01257
5521.79857	0.01260
5519.86989	0.01263
5517.94121	0.01266
5516.01254	0.01268
5514.08386	0.01269
5512.15519	0.01271
5510.22651	0.01273
5508.29784	0.01275
5506.36916	0.01278
5504.44048	0.01281
5502.51181	0.01284
5500.58313	0.01286
5498.65446	0.01288
5496.72578	0.01291
5494.79711	0.01293
5492.86843	0.01296
5490.93975	0.01299
5489.01108	0.01302
5487.08240	0.01304
5485.15373	0.01308
5483.22505	0.01311
5481.29638	0.01315
5479.36770	0.01318
5477.43902	0.01319
5475.51035	0.01320
5473.58167	0.01325
5471.65300	0.01329
5469.72432	0.01329
5467.79565	0.01331
5465.86697	0.01335
5463.93829	0.01339
5462.00962	0.01343
5460.08094	0.01345
5458.15227	0.01347
5456.22359	0.01348
5454.29492	0.01349
5452.36624	0.01351
5450.43756	0.01352
5448.50889	0.01353
5446.58021	0.01356
5444.65154	0.01361
5442.72286	0.01364
5440.79419	0.01367
5438.86551	0.01370
5436.93683	0.01375
5435.00816	0.01378
5433.07948	0.01380
5431.15081	0.01380
5429.22213	0.01381
5427.29346	0.01383
5425.36478	0.01386
5423.43610	0.01389
5421.50743	0.01393
5419.57875	0.01396
5417.65008	0.01398
5415.72140	0.01401
5413.79273	0.01404
5411.86405	0.01408
5409.93537	0.01410
5408.00670	0.01413
5406.07802	0.01416
5404.14935	0.01419
5402.22067	0.01423
5400.29200	0.01427
5398.36332	0.01430
5396.43464	0.01432
5394.50597	0.01434
5392.57729	0.01437
5390.64862	0.01439
5388.71994	0.01441
5386.79127	0.01443
5384.86259	0.01446
5382.93391	0.01451
5381.00524	0.01454
5379.07656	0.01456
5377.14789	0.01456
5375.21921	0.01458
5373.29054	0.01461
5371.36186	0.01465
5369.43318	0.01467
5367.50451	0.01469
5365.57583	0.01473
5363.64716	0.01478
5361.71848	0.01480
5359.78981	0.01482
5357.86113	0.01484
5355.93245	0.01487
5354.00378	0.01490
5352.07510	0.01494
5350.14643	0.01498
5348.21775	0.01502
5346.28908	0.01504
5344.36040	0.01505
5342.43172	0.01508
5340.50305	0.01509
5338.57437	0.01511
5336.64570	0.01515
5334.71702	0.01519
5332.78835	0.01522
5330.85967	0.01525
5328.93099	0.01528
5327.00232	0.01532
5325.07364	0.01536
5323.14497	0.01539
5321.21629	0.01542
5319.28762	0.01544
5317.35894	0.01545
5315.43026	0.01546
5313.50159	0.01550
5311.57291	0.01555
5309.64424	0.01557
5307.71556	0.01558
5305.78689	0.01563
5303.85821	0.01567
5301.92953	0.01568
5300.00086	0.01569
5298.07218	0.01571
5296.14351	0.01574
5294.21483	0.01578
5292.28616	0.01581
5290.35748	0.01584
5288.42880	0.01587
5286.50013	0.01590
5284.57145	0.01592
5282.64278	0.01595
5280.71410	0.01597
5278.78543	0.01601
5276.85675	0.01604
5274.92807	0.01607
5272.99940	0.01609
5271.07072	0.01611
5269.14205	0.01615
5267.21337	0.01620
5265.28470	0.01624
5263.35602	0.01628
5261.42734	0.01631
5259.49867	0.01632
5257.56999	0.01635
5255.64132	0.01638
5253.71264	0.01642
5251.78397	0.01645
5249.85529	0.01647
5247.92661	0.01649
5245.99794	0.01650
5244.06926	0.01652
5242.14059	0.01654
5240.21191	0.01656
5238.28324	0.01660
5236.35456	0.01666
5234.42588	0.01670
5232.49721	0.01673
5230.56853	0.01676
5228.63986	0.01680
5226.71118	0.01683
5224.78251	0.01686
5222.85383	0.01689
5220.92515	0.01690
5218.99648	0.01691
5217.06780	0.01693
5215.13913	0.01699
5213.21045	0.01704
5211.28178	0.01705
5209.35310	0.01705
5207.42442	0.01708
5205.49575	0.01713
5203.56707	0.01718
5201.63840	0.01722
5199.70972	0.01725
5197.78105	0.01728
5195.85237	0.01731
5193.92369	0.01734
5191.99502	0.01738
5190.06634	0.01743
5188.13767	0.01746
5186.20899	0.01747
5184.28032	0.01750
5182.35164	0.01755
5180.42296	0.01758
5178.49429	0.01761
5176.56561	0.01762
5174.63694	0.01765
5172.70826	0.01769
5170.77959	0.01772
5168.85091	0.01774
5166.92223	0.01776
5164.99356	0.01778
5163.06488	0.01781
5161.13621	0.01784
5159.20753	0.01787
5157.27886	0.01789
5155.35018	0.01792
5153.42150	0.01796
5151.49283	0.01800
5149.56415	0.01802
5147.63548	0.01806
5145.70680	0.01811
5143.77813	0.01817
5141.84945	0.01822
5139.92077	0.01825
5137.99210	0.01828
5136.06342	0.01831
5134.13475	0.01833
5132.20607	0.01835
5130.27740	0.01838
5128.34872	0.01841
5126.42004	0.01847
5124.49137	0.01850
5122.56269	0.01852
5120.63402	0.01854
5118.70534	0.01856
5116.77667	0.01858
5114.84799	0.01861
5112.91931	0.01865
5110.99064	0.01869
5109.06196	0.01872
5107.13329	0.01874
5105.20461	0.01877
5103.27594	0.01879
5101.34726	0.01882
5099.41858	0.01885
5097.48991	0.01887
5095.56123	0.01889
5093.63256	0.01894
5091.70388	0.01899
5089.77521	0.01904
5087.84653	0.01906
5085.91785	0.01908
5083.98918	0.01911
5082.06050	0.01914
5080.13183	0.01918
5078.20315	0.01923
5076.27448	0.01927
5074.34580	0.01929
5072.41712	0.01933
5070.48845	0.01938
5068.55977	0.01941
5066.63110	0.01943
5064.70242	0.01946
5062.77375	0.01949
5060.84507	0.01952
5058.91639	0.01956
5056.98772	0.01959
5055.05904	0.01962
5053.13037	0.01965
5051.20169	0.01970
5049.27302	0.01973
5047.34434	0.01975
5045.41566	0.01975
5043.48699	0.01980
5041.55831	0.01986
5039.62964	0.01991
5037.70096	0.01996
5035.77229	0.01998
5033.84361	0.01999
5031.91493	0.02001
5029.98626	0.02003
5028.05758	0.02006
5026.12891	0.02010
5024.20023	0.02015
5022.27156	0.02018
5020.34288	0.02019
5018.41420	0.02024
5016.48553	0.02030
5014.55685	0.02034
5012.62818	0.02037
5010.69950	0.02040
5008.77083	0.02042
5006.84215	0.02045
5004.91347	0.02048
5002.98480	0.02052
5001.05612	0.02057
4999.12745	0.02061
4997.19877	0.02064
4995.27010	0.02067
4993.34142	0.02069
4991.41274	0.02071
4989.48407	0.02073
4987.55539	0.02077
4985.62672	0.02082
4983.69804	0.02085
4981.76937	0.02090
4979.84069	0.02095
4977.91201	0.02098
4975.98334	0.02100
4974.05466	0.02104
4972.12599	0.02108
4970.19731	0.02113
4968.26864	0.02117
4966.33996	0.02120
4964.41128	0.02123
4962.48261	0.02126
4960.55393	0.02129
4958.62526	0.02132
4956.69658	0.02135
4954.76791	0.02139
4952.83923	0.02143
4950.91055	0.02148
4948.98188	0.02151
4947.05320	0.02154
4945.12453	0.02157
4943.19585	0.02160
4941.26718	0.02162
4939.33850	0.02164
4937.40982	0.02169
4935.48115	0.02175
4933.55247	0.02180
4931.62380	0.02182
4929.69512	0.02184
4927.76645	0.02188
4925.83777	0.02192
4923.90909	0.02195
4921.98042	0.02197
4920.05174	0.02199
4918.12307	0.02202
4916.19439	0.02207
4914.26572	0.02213
4912.33704	0.02218
4910.40836	0.02220
4908.47969	0.02222
4906.55101	0.02225
4904.62234	0.02231
4902.69366	0.02236
4900.76499	0.02239
4898.83631	0.02243
4896.90763	0.02246
4894.97896	0.02249
4893.05028	0.02252
4891.12161	0.02255
4889.19293	0.02258
4887.26426	0.02262
4885.33558	0.02265
4883.40690	0.02267
4881.47823	0.02271
4879.54955	0.02276
4877.62088	0.02281
4875.69220	0.02284
4873.76353	0.02287
4871.83485	0.02291
4869.90617	0.02293
4867.97750	0.02296
4866.04882	0.02300
4864.12015	0.02306
4862.19147	0.02310
4860.26280	0.02313
4858.33412	0.02317
4856.40544	0.02320
4854.47677	0.02323
4852.54809	0.02325
4850.61942	0.02329
4848.69074	0.02334
4846.76207	0.02340
4844.83339	0.02344
4842.90471	0.02349
4840.97604	0.02354
4839.04736	0.02356
4837.11869	0.02356
4835.19001	0.02357
4833.26134	0.02360
4831.33266	0.02365
4829.40398	0.02372
4827.47531	0.02378
4825.54663	0.02381
4823.61796	0.02385
4821.68928	0.02389
4819.76061	0.02393
4817.83193	0.02398
4815.90325	0.02401
4813.97458	0.02404
4812.04590	0.02408
4810.11723	0.02415
4808.18855	0.02421
4806.25988	0.02424
4804.33120	0.02427
4802.40252	0.02431
4800.47385	0.02435
4798.54517	0.02437
4796.61650	0.02440
4794.68782	0.02443
4792.75915	0.02446
4790.83047	0.02449
4788.90179	0.02453
4786.97312	0.02457
4785.04444	0.02461
4783.11577	0.02465
4781.18709	0.02469
4779.25842	0.02475
4777.32974	0.02479
4775.40106	0.02482
4773.47239	0.02486
4771.54371	0.02490
4769.61504	0.02496
4767.68636	0.02502
4765.75769	0.02504
4763.82901	0.02506
4761.90033	0.02509
4759.97166	0.02514
4758.04298	0.02518
4756.11431	0.02522
4754.18563	0.02524
4752.25696	0.02528
4750.32828	0.02533
4748.39960	0.02537
4746.47093	0.02541
4744.54225	0.02543
4742.61358	0.02547
4740.68490	0.02552
4738.75623	0.02557
4736.82755	0.02562
4734.89887	0.02567
4732.97020	0.02572
4731.04152	0.02575
4729.11285	0.02580
4727.18417	0.02584
4725.25550	0.02587
4723.32682	0.02589
4721.39814	0.02593
4719.46947	0.02598
4717.54079	0.02602
4715.61212	0.02606
4713.68344	0.02609
4711.75477	0.02613
4709.82609	0.02619
4707.89741	0.02626
4705.96874	0.02630
4704.04006	0.02632
4702.11139	0.02635
4700.18271	0.02640
4698.25404	0.02646
4696.32536	0.02650
4694.39668	0.02652
4692.46801	0.02657
4690.53933	0.02663
4688.61066	0.02666
4686.68198	0.02670
4684.75331	0.02675
4682.82463	0.02680
4680.89595	0.02682
4678.96728	0.02683
4677.03860	0.02687
4675.10993	0.02694
4673.18125	0.02700
4671.25258	0.02704
4669.32390	0.02708
4667.39522	0.02714
4665.46655	0.02720
4663.53787	0.02723
4661.60920	0.02724
4659.68052	0.02726
4657.75185	0.02731
4655.82317	0.02737
4653.89449	0.02744
4651.96582	0.02748
4650.03714	0.02750
4648.10847	0.02753
4646.17979	0.02759
4644.25112	0.02764
4642.32244	0.02770
4640.39376	0.02776
4638.46509	0.02781
4636.53641	0.02784
4634.60774	0.02787
4632.67906	0.02788
4630.75039	0.02791
4628.82171	0.02797
4626.89303	0.02803
4624.96436	0.02807
4623.03568	0.02813
4621.10701	0.02820
4619.17833	0.02824
4617.24966	0.02827
4615.32098	0.02832
4613.39230	0.02838
4611.46363	0.02844
4609.53495	0.02848
4607.60628	0.02850
4605.67760	0.02852
4603.74893	0.02857
4601.82025	0.02864
4599.89157	0.02870
4597.96290	0.02874
4596.03422	0.02878
4594.10555	0.02883
4592.17687	0.02886
4590.24820	0.02889
4588.31952	0.02895
4586.39084	0.02903
4584.46217	0.02908
4582.53349	0.02910
4580.60482	0.02912
4578.67614	0.02917
4576.74747	0.02923
4574.81879	0.02927
4572.89011	0.02932
4570.96144	0.02937
4569.03276	0.02942
4567.10409	0.02947
4565.17541	0.02953
4563.24674	0.02959
4561.31806	0.02965
4559.38938	0.02970
4557.46071	0.02974
4555.53203	0.02979
4553.60336	0.02985
4551.67468	0.02990
4549.74601	0.02995
4547.81733	0.02999
4545.88865	0.03005
4543.95998	0.03010
4542.03130	0.03014
4540.10263	0.03017
4538.17395	0.03021
4536.24528	0.03026
4534.31660	0.03032
4532.38792	0.03039
4530.45925	0.03044
4528.53057	0.03047
4526.60190	0.03049
4524.67322	0.03051
4522.74455	0.03056
4520.81587	0.03062
4518.88719	0.03068
4516.95852	0.03074
4515.02984	0.03079
4513.10117	0.03083
4511.17249	0.03089
4509.24382	0.03095
4507.31514	0.03100
4505.38646	0.03105
4503.45779	0.03111
4501.52911	0.03115
4499.60044	0.03119
4497.67176	0.03123
4495.74309	0.03129
4493.81441	0.03136
4491.88573	0.03141
4489.95706	0.03146
4488.02838	0.03151
4486.09971	0.03156
4484.17103	0.03160
4482.24236	0.03167
4480.31368	0.03175
4478.38500	0.03181
4476.45633	0.03184
4474.52765	0.03187
4472.59898	0.03193
4470.67030	0.03199
4468.74163	0.03202
4466.81295	0.03206
4464.88427	0.03212
4462.95560	0.03219
4461.02692	0.03225
4459.09825	0.03230
4457.16957	0.03234
4455.24090	0.03238
4453.31222	0.03245
4451.38354	0.03251
4449.45487	0.03256
4447.52619	0.03262
4445.59752	0.03269
4443.66884	0.03276
4441.74017	0.03282
4439.81149	0.03288
4437.88281	0.03294
4435.95414	0.03298
4434.02546	0.03303
4432.09679	0.03310
4430.16811	0.03318
4428.23944	0.03323
4426.31076	0.03328
4424.38208	0.03332
4422.45341	0.03336
4420.52473	0.03340
4418.59606	0.03344
4416.66738	0.03350
4414.73871	0.03357
4412.81003	0.03364
4410.88135	0.03371
4408.95268	0.03378
4407.02400	0.03384
4405.09533	0.03389
4403.16665	0.03394
4401.23798	0.03401
4399.30930	0.03408
4397.38062	0.03413
4395.45195	0.03417
4393.52327	0.03422
4391.59460	0.03430
4389.66592	0.03438
4387.73725	0.03443
4385.80857	0.03447
4383.87989	0.03450
4381.95122	0.03455
4380.02254	0.03463
4378.09387	0.03473
4376.16519	0.03481
4374.23652	0.03486
4372.30784	0.03489
4370.37916	0.03494
4368.45049	0.03501
4366.52181	0.03510
4364.59314	0.03518
4362.66446	0.03525
4360.73579	0.03527
4358.80711	0.03529
4356.87843	0.03533
4354.94976	0.03539
4353.02108	0.03546
4351.09241	0.03554
4349.16373	0.03562
4347.23506	0.03567
4345.30638	0.03572
4343.37770	0.03577
4341.44903	0.03584
4339.52035	0.03590
4337.59168	0.03597
4335.66300	0.03605
4333.73433	0.03612
4331.80565	0.03619
4329.87697	0.03626
4327.94830	0.03633
4326.01962	0.03639
4324.09095	0.03645
4322.16227	0.03650
4320.23360	0.03655
4318.30492	0.03663
4316.37624	0.03671
4314.44757	0.03679
4312.51889	0.03684
4310.59022	0.03687
4308.66154	0.03694
4306.73287	0.03702
4304.80419	0.03710
4302.87551	0.03717
4300.94684	0.03722
4299.01816	0.03729
4297.08949	0.03736
4295.16081	0.03742
4293.23214	0.03746
4291.30346	0.03750
4289.37478	0.03756
4287.44611	0.03763
4285.51743	0.03772
4283.58876	0.03781
4281.66008	0.03790
4279.73141	0.03798
4277.80273	0.03804
4275.87405	0.03810
4273.94538	0.03816
4272.01670	0.03823
4270.08803	0.03831
4268.15935	0.03839
4266.23068	0.03845
4264.30200	0.03850
4262.37332	0.03855
4260.44465	0.03861
4258.51597	0.03867
4256.58730	0.03873
4254.65862	0.03881
4252.72995	0.03889
4250.80127	0.03895
4248.87259	0.03902
4246.94392	0.03911
4245.01524	0.03920
4243.08657	0.03927
4241.15789	0.03932
4239.22922	0.03940
4237.30054	0.03948
4235.37186	0.03953
4233.44319	0.03959
4231.51451	0.03966
4229.58584	0.03972
4227.65716	0.03979
4225.72849	0.03986
4223.79981	0.03994
4221.87113	0.04001
4219.94246	0.04008
4218.01378	0.04016
4216.08511	0.04024
4214.15643	0.04030
4212.22776	0.04035
4210.29908	0.04041
4208.37040	0.04049
4206.44173	0.04058
4204.51305	0.04066
4202.58438	0.04073
4200.65570	0.04081
4198.72703	0.04090
4196.79835	0.04097
4194.86968	0.04100
4192.94100	0.04104
4191.01232	0.04113
4189.08365	0.04123
4187.15497	0.04131
4185.22630	0.04138
4183.29762	0.04144
4181.36895	0.04152
4179.44027	0.04159
4177.51159	0.04165
4175.58292	0.04170
4173.65424	0.04176
4171.72557	0.04184
4169.79689	0.04192
4167.86822	0.04202
4165.93954	0.04213
4164.01086	0.04223
4162.08219	0.04231
4160.15351	0.04237
4158.22484	0.04241
4156.29616	0.04246
4154.36749	0.04254
4152.43881	0.04265
4150.51013	0.04275
4148.58146	0.04283
4146.65278	0.04291
4144.72411	0.04299
4142.79543	0.04306
4140.86676	0.04314
4138.93808	0.04324
4137.00940	0.04334
4135.08073	0.04341
4133.15205	0.04346
4131.22338	0.04351
4129.29470	0.04357
4127.36603	0.04366
4125.43735	0.04375
4123.50867	0.04384
4121.58000	0.04389
4119.65132	0.04395
4117.72265	0.04403
4115.79397	0.04410
4113.86530	0.04417
4111.93662	0.04426
4110.00794	0.04437
4108.07927	0.04447
4106.15059	0.04455
4104.22192	0.04464
4102.29324	0.04475
4100.36457	0.04484
4098.43589	0.04489
4096.50721	0.04496
4094.57854	0.04504
4092.64986	0.04512
4090.72119	0.04519
4088.79251	0.04525
4086.86384	0.04533
4084.93516	0.04542
4083.00648	0.04550
4081.07781	0.04558
4079.14913	0.04567
4077.22046	0.04577
4075.29178	0.04585
4073.36311	0.04592
4071.43443	0.04599
4069.50575	0.04607
4067.57708	0.04615
4065.64840	0.04625
4063.71973	0.04635
4061.79105	0.04644
4059.86238	0.04651
4057.93370	0.04657
4056.00502	0.04664
4054.07635	0.04672
4052.14767	0.04680
4050.21900	0.04689
4048.29032	0.04699
4046.36165	0.04710
4044.43297	0.04720
4042.50429	0.04728
4040.57562	0.04735
4038.64694	0.04744
4036.71827	0.04751
4034.78959	0.04757
4032.86092	0.04765
4030.93224	0.04774
4029.00356	0.04783
4027.07489	0.04793
4025.14621	0.04804
4023.21754	0.04811
4021.28886	0.04818
4019.36019	0.04827
4017.43151	0.04836
4015.50283	0.04844
4013.57416	0.04851
4011.64548	0.04859
4009.71681	0.04868
4007.78813	0.04877
4005.85946	0.04884
4003.93078	0.04893
4002.00210	0.04906
4000.07343	0.04919
3998.14475	0.04929
3996.21608	0.04934
3994.28740	0.04938
3992.35873	0.04944
3990.43005	0.04952
3988.50137	0.04961
3986.57270	0.04971
3984.64402	0.04981
3982.71535	0.04992
3980.78667	0.05003
3978.85800	0.05013
3976.92932	0.05023
3975.00064	0.05030
3973.07197	0.05037
3971.14329	0.05046
3969.21462	0.05056
3967.28594	0.05066
3965.35727	0.05076
3963.42859	0.05084
3961.49991	0.05091
3959.57124	0.05099
3957.64256	0.05107
3955.71389	0.05114
3953.78521	0.05122
3951.85654	0.05130
3949.92786	0.05140
3947.99918	0.05151
3946.07051	0.05162
3944.14183	0.05173
3942.21316	0.05183
3940.28448	0.05195
3938.35581	0.05204
3936.42713	0.05211
3934.49845	0.05215
3932.56978	0.05220
3930.64110	0.05230
3928.71243	0.05243
3926.78375	0.05251
3924.85508	0.05258
3922.92640	0.05266
3920.99772	0.05274
3919.06905	0.05282
3917.14037	0.05295
3915.21170	0.05311
3913.28302	0.05324
3911.35435	0.05333
3909.42567	0.05341
3907.49699	0.05344
3905.56832	0.05341
3903.63964	0.05341
3901.71097	0.05349
3899.78229	0.05362
3897.85362	0.05381
3895.92494	0.05400
3893.99626	0.05408
3892.06759	0.05411
3890.13891	0.05419
3888.21024	0.05425
3886.28156	0.05428
3884.35289	0.05437
3882.42421	0.05448
3880.49553	0.05456
3878.56686	0.05470
3876.63818	0.05486
3874.70951	0.05495
3872.78083	0.05498
3870.85216	0.05501
3868.92348	0.05514
3866.99480	0.05531
3865.06613	0.05542
3863.13745	0.05553
3861.20878	0.05569
3859.28010	0.05579
3857.35143	0.05571
3855.42275	0.05550
3853.49407	0.05550
3851.56540	0.05585
3849.63672	0.05626
3847.70805	0.05648
3845.77937	0.05654
3843.85070	0.05652
3841.92202	0.05653
3839.99334	0.05656
3838.06467	0.05665
3836.13599	0.05681
3834.20732	0.05697
3832.27864	0.05711
3830.34997	0.05725
3828.42129	0.05738
3826.49261	0.05747
3824.56394	0.05753
3822.63526	0.05751
3820.70659	0.05756
3818.77791	0.05770
3816.84924	0.05782
3814.92056	0.05800
3812.99188	0.05823
3811.06321	0.05834
3809.13453	0.05832
3807.20586	0.05832
3805.27718	0.05842
3803.34851	0.05849
3801.41983	0.05854
3799.49115	0.05870
3797.56248	0.05889
3795.63380	0.05906
3793.70513	0.05924
3791.77645	0.05938
3789.84778	0.05947
3787.91910	0.05954
3785.99042	0.05963
3784.06175	0.05972
3782.13307	0.05979
3780.20440	0.05984
3778.27572	0.05994
3776.34705	0.06010
3774.41837	0.06025
3772.48969	0.06033
3770.56102	0.06039
3768.63234	0.06049
3766.70367	0.06060
3764.77499	0.06071
3762.84632	0.06080
3760.91764	0.06083
3758.98896	0.06089
3757.06029	0.06100
3755.13161	0.06107
3753.20294	0.06100
3751.27426	0.06091
3749.34559	0.06099
3747.41691	0.06106
3745.48823	0.06104
3743.55956	0.06121
3741.63088	0.06158
3739.70221	0.06177
3737.77353	0.06174
3735.84486	0.06172
3733.91618	0.06186
3731.98750	0.06211
3730.05883	0.06235
3728.13015	0.06247
3726.20148	0.06251
3724.27280	0.06260
3722.34413	0.06270
3720.41545	0.06279
3718.48677	0.06291
3716.55810	0.06301
3714.62942	0.06302
3712.70075	0.06298
3710.77207	0.06304
3708.84340	0.06321
3706.91472	0.06338
3704.98604	0.06347
3703.05737	0.06349
3701.12869	0.06354
3699.20002	0.06366
3697.27134	0.06378
3695.34267	0.06382
3693.41399	0.06379
3691.48531	0.06370
3689.55664	0.06367
3687.62796	0.06378
3685.69929	0.06395
3683.77061	0.06406
3681.84194	0.06407
3679.91326	0.06402
3677.98458	0.06387
3676.05591	0.06375
3674.12723	0.06381
3672.19856	0.06393
3670.26988	0.06398
3668.34121	0.06411
3666.41253	0.06429
3664.48385	0.06442
3662.55518	0.06446
3660.62650	0.06446
3658.69783	0.06441
3656.76915	0.06438
3654.84048	0.06441
3652.91180	0.06435
3650.98312	0.06416
3649.05445	0.06403
3647.12577	0.06415
3645.19710	0.06445
3643.26842	0.06473
3641.33975	0.06489
3639.41107	0.06498
3637.48239	0.06503
3635.55372	0.06507
3633.62504	0.06510
3631.69637	0.06503
3629.76769	0.06492
3627.83902	0.06502
3625.91034	0.06530
3623.98166	0.06547
3622.05299	0.06547
3620.12431	0.06542
3618.19564	0.06547
3616.26696	0.06559
3614.33829	0.06568
3612.40961	0.06572
3610.48093	0.06575
3608.55226	0.06584
3606.62358	0.06602
3604.69491	0.06619
3602.76623	0.06626
3600.83756	0.06628
3598.90888	0.06632
3596.98020	0.06636
3595.05153	0.06642
3593.12285	0.06650
3591.19418	0.06653
3589.26550	0.06650
3587.33683	0.06656
3585.40815	0.06675
3583.47947	0.06693
3581.55080	0.06703
3579.62212	0.06711
3577.69345	0.06718
3575.76477	0.06725
3573.83610	0.06733
3571.90742	0.06739
3569.97874	0.06738
3568.05007	0.06735
3566.12139	0.06740
3564.19272	0.06756
3562.26404	0.06770
3560.33537	0.06781
3558.40669	0.06793
3556.47801	0.06803
3554.54934	0.06807
3552.62066	0.06812
3550.69199	0.06820
3548.76331	0.06829
3546.83464	0.06834
3544.90596	0.06839
3542.97728	0.06847
3541.04861	0.06854
3539.11993	0.06858
3537.19126	0.06861
3535.26258	0.06867
3533.33391	0.06872
3531.40523	0.06876
3529.47655	0.06878
3527.54788	0.06880
3525.61920	0.06882
3523.69053	0.06885
3521.76185	0.06888
3519.83318	0.06892
3517.90450	0.06896
3515.97582	0.06901
3514.04715	0.06906
3512.11847	0.06906
3510.18980	0.06903
3508.26112	0.06905
3506.33245	0.06910
3504.40377	0.06912
3502.47509	0.06913
3500.54642	0.06917
3498.61774	0.06919
3496.68907	0.06920
3494.76039	0.06922
3492.83172	0.06922
3490.90304	0.06922
3488.97436	0.06922
3487.04569	0.06925
3485.11701	0.06929
3483.18834	0.06932
3481.25966	0.06937
3479.33099	0.06943
3477.40231	0.06950
3475.47363	0.06955
3473.54496	0.06962
3471.61628	0.06973
3469.68761	0.06983
3467.75893	0.06992
3465.83026	0.07002
3463.90158	0.07012
3461.97290	0.07022
3460.04423	0.07032
3458.11555	0.07043
3456.18688	0.07054
3454.25820	0.07063
3452.32953	0.07071
3450.40085	0.07079
3448.47217	0.07087
3446.54350	0.07095
3444.61482	0.07106
3442.68615	0.07121
3440.75747	0.07138
3438.82880	0.07155
3436.90012	0.07171
3434.97144	0.07187
3433.04277	0.07206
3431.11409	0.07228
3429.18542	0.07250
3427.25674	0.07271
3425.32807	0.07290
3423.39939	0.07308
3421.47071	0.07329
3419.54204	0.07349
3417.61336	0.07369
3415.68469	0.07386
3413.75601	0.07403
3411.82734	0.07418
3409.89866	0.07433
3407.96998	0.07448
3406.04131	0.07463
3404.11263	0.07476
3402.18396	0.07487
3400.25528	0.07498
3398.32661	0.07510
3396.39793	0.07527
3394.46925	0.07546
3392.54058	0.07562
3390.61190	0.07577
3388.68323	0.07592
3386.75455	0.07607
3384.82588	0.07622
3382.89720	0.07638
3380.96852	0.07653
3379.03985	0.07666
3377.11117	0.07678
3375.18250	0.07691
3373.25382	0.07704
3371.32515	0.07716
3369.39647	0.07729
3367.46779	0.07743
3365.53912	0.07757
3363.61044	0.07771
3361.68177	0.07785
3359.75309	0.07799
3357.82442	0.07812
3355.89574	0.07827
3353.96706	0.07842
3352.03839	0.07854
3350.10971	0.07865
3348.18104	0.07879
3346.25236	0.07897
3344.32369	0.07914
3342.39501	0.07928
3340.46633	0.07942
3338.53766	0.07957
3336.60898	0.07971
3334.68031	0.07985
3332.75163	0.07999
3330.82296	0.08011
3328.89428	0.08021
3326.96560	0.08034
3325.03693	0.08050
3323.10825	0.08067
3321.17958	0.08084
3319.25090	0.08100
3317.32223	0.08115
3315.39355	0.08128
3313.46487	0.08142
3311.53620	0.08156
3309.60752	0.08170
3307.67885	0.08186
3305.75017	0.08203
3303.82150	0.08221
3301.89282	0.08239
3299.96414	0.08252
3298.03547	0.08264
3296.10679	0.08276
3294.17812	0.08291
3292.24944	0.08308
3290.32077	0.08325
3288.39209	0.08341
3286.46341	0.08355
3284.53474	0.08371
3282.60606	0.08388
3280.67739	0.08403
3278.74871	0.08416
3276.82004	0.08430
3274.89136	0.08444
3272.96268	0.08461
3271.03401	0.08481
3269.10533	0.08501
3267.17666	0.08517
3265.24798	0.08530
3263.31931	0.08540
3261.39063	0.08554
3259.46195	0.08574
3257.53328	0.08594
3255.60460	0.08610
3253.67593	0.08625
3251.74725	0.08640
3249.81858	0.08658
3247.88990	0.08676
3245.96122	0.08692
3244.03255	0.08708
3242.10387	0.08724
3240.17520	0.08739
3238.24652	0.08755
3236.31785	0.08770
3234.38917	0.08786
3232.46049	0.08802
3230.53182	0.08817
3228.60314	0.08833
3226.67447	0.08850
3224.74579	0.08867
3222.81712	0.08883
3220.88844	0.08900
3218.95976	0.08916
3217.03109	0.08931
3215.10241	0.08945
3213.17374	0.08962
3211.24506	0.08981
3209.31639	0.08999
3207.38771	0.09015
3205.45903	0.09029
3203.53036	0.09044
3201.60168	0.09061
3199.67301	0.09079
3197.74433	0.09095
3195.81566	0.09109
3193.88698	0.09126
3191.95830	0.09147
3190.02963	0.09168
3188.10095	0.09185
3186.17228	0.09200
3184.24360	0.09214
3182.31493	0.09229
3180.38625	0.09246
3178.45757	0.09263
3176.52890	0.09281
3174.60022	0.09299
3172.67155	0.09316
3170.74287	0.09332
3168.81420	0.09349
3166.88552	0.09366
3164.95684	0.09384
3163.02817	0.09402
3161.09949	0.09419
3159.17082	0.09437
3157.24214	0.09454
3155.31347	0.09472
3153.38479	0.09490
3151.45611	0.09506
3149.52744	0.09522
3147.59876	0.09537
3145.67009	0.09552
3143.74141	0.09569
3141.81274	0.09586
3139.88406	0.09604
3137.95538	0.09622
3136.02671	0.09638
3134.09803	0.09650
3132.16936	0.09665
3130.24068	0.09683
3128.31201	0.09703
3126.38333	0.09721
3124.45465	0.09736
3122.52598	0.09749
3120.59730	0.09762
3118.66863	0.09776
3116.73995	0.09795
3114.81128	0.09814
3112.88260	0.09832
3110.95392	0.09851
3109.02525	0.09869
3107.09657	0.09886
3105.16790	0.09902
3103.23922	0.09916
3101.31055	0.09928
3099.38187	0.09941
3097.45319	0.09956
3095.52452	0.09970
3093.59584	0.09986
3091.66717	0.10004
3089.73849	0.10024
3087.80982	0.10043
3085.88114	0.10058
3083.95246	0.10071
3082.02379	0.10083
3080.09511	0.10099
3078.16644	0.10116
3076.23776	0.10134
3074.30909	0.10151
3072.38041	0.10166
3070.45173	0.10181
3068.52306	0.10198
3066.59438	0.10216
3064.66571	0.10234
3062.73703	0.10251
3060.80836	0.10265
3058.87968	0.10278
3056.95100	0.10291
3055.02233	0.10308
3053.09365	0.10326
3051.16498	0.10345
3049.23630	0.10363
3047.30763	0.10378
3045.37895	0.10391
3043.45027	0.10405
3041.52160	0.10419
3039.59292	0.10434
3037.66425	0.10451
3035.73557	0.10467
3033.80690	0.10481
3031.87822	0.10496
3029.94954	0.10513
3028.02087	0.10530
3026.09219	0.10546
3024.16352	0.10561
3022.23484	0.10574
3020.30617	0.10586
3018.37749	0.10597
3016.44881	0.10611
3014.52014	0.10627
3012.59146	0.10644
3010.66279	0.10662
3008.73411	0.10681
3006.80544	0.10701
3004.87676	0.10716
3002.94808	0.10728
3001.01941	0.10742
2999.09073	0.10754
2997.16206	0.10768
2995.23338	0.10782
2993.30471	0.10797
2991.37603	0.10811
2989.44735	0.10823
2987.51868	0.10834
2985.59000	0.10846
2983.66133	0.10856
2981.73265	0.10862
2979.80398	0.10868
2977.87530	0.10874
2975.94662	0.10879
2974.01795	0.10880
2972.08927	0.10883
2970.16060	0.10885
2968.23192	0.10884
2966.30325	0.10882
2964.37457	0.10882
2962.44589	0.10888
2960.51722	0.10901
2958.58854	0.10915
2956.65987	0.10934
2954.73119	0.10957
2952.80252	0.10980
2950.87384	0.10999
2948.94516	0.11018
2947.01649	0.11035
2945.08781	0.11046
2943.15914	0.11053
2941.23046	0.11059
2939.30179	0.11062
2937.37311	0.11060
2935.44443	0.11054
2933.51576	0.11047
2931.58708	0.11042
2929.65841	0.11040
2927.72973	0.11039
2925.80106	0.11039
2923.87238	0.11041
2921.94370	0.11046
2920.01503	0.11053
2918.08635	0.11070
2916.15768	0.11102
2914.22900	0.11150
2912.30033	0.11203
2910.37165	0.11254
2908.44297	0.11297
2906.51430	0.11334
2904.58562	0.11363
2902.65695	0.11384
2900.72827	0.11405
2898.79960	0.11430
2896.87092	0.11456
2894.94224	0.11476
2893.01357	0.11494
2891.08489	0.11513
2889.15622	0.11535
2887.22754	0.11558
2885.29887	0.11580
2883.37019	0.11599
2881.44151	0.11614
2879.51284	0.11627
2877.58416	0.11642
2875.65549	0.11657
2873.72681	0.11672
2871.79814	0.11685
2869.86946	0.11700
2867.94078	0.11715
2866.01211	0.11727
2864.08343	0.11733
2862.15476	0.11739
2860.22608	0.11744
2858.29741	0.11746
2856.36873	0.11745
2854.44005	0.11745
2852.51138	0.11745
2850.58270	0.11753
2848.65403	0.11784
2846.72535	0.11837
2844.79668	0.11895
2842.86800	0.11944
2840.93932	0.11978
2839.01065	0.12004
2837.08197	0.12028
2835.15330	0.12050
2833.22462	0.12071
2831.29595	0.12090
2829.36727	0.12107
2827.43859	0.12125
2825.50992	0.12144
2823.58124	0.12162
2821.65257	0.12182
2819.72389	0.12202
2817.79522	0.12221
2815.86654	0.12235
2813.93786	0.12248
2812.00919	0.12266
2810.08051	0.12287
2808.15184	0.12306
2806.22316	0.12322
2804.29449	0.12339
2802.36581	0.12355
2800.43713	0.12369
2798.50846	0.12386
2796.57978	0.12403
2794.65111	0.12418
2792.72243	0.12433
2790.79376	0.12450
2788.86508	0.12469
2786.93640	0.12487
2785.00773	0.12502
2783.07905	0.12515
2781.15038	0.12530
2779.22170	0.12548
2777.29303	0.12564
2775.36435	0.12580
2773.43567	0.12598
2771.50700	0.12615
2769.57832	0.12632
2767.64965	0.12650
2765.72097	0.12664
2763.79230	0.12674
2761.86362	0.12687
2759.93494	0.12708
2758.00627	0.12726
2756.07759	0.12739
2754.14892	0.12751
2752.22024	0.12764
2750.29157	0.12778
2748.36289	0.12791
2746.43421	0.12803
2744.50554	0.12818
2742.57686	0.12835
2740.64819	0.12852
2738.71951	0.12867
2736.79084	0.12880
2734.86216	0.12896
2732.93348	0.12915
2731.00481	0.12934
2729.07613	0.12949
2727.14746	0.12962
2725.21878	0.12976
2723.29011	0.12991
2721.36143	0.13004
2719.43275	0.13015
2717.50408	0.13029
2715.57540	0.13043
2713.64673	0.13056
2711.71805	0.13070
2709.78938	0.13086
2707.86070	0.13101
2705.93202	0.13116
2704.00335	0.13132
2702.07467	0.13147
2700.14600	0.13161
2698.21732	0.13175
2696.28865	0.13188
2694.35997	0.13201
2692.43129	0.13218
2690.50262	0.13235
2688.57394	0.13248
2686.64527	0.13260
2684.71659	0.13274
2682.78792	0.13288
2680.85924	0.13305
2678.93056	0.13322
2677.00189	0.13338
2675.07321	0.13350
2673.14454	0.13362
2671.21586	0.13375
2669.28719	0.13388
2667.35851	0.13404
2665.42983	0.13421
2663.50116	0.13436
2661.57248	0.13449
2659.64381	0.13463
2657.71513	0.13479
2655.78646	0.13497
2653.85778	0.13514
2651.92910	0.13530
2650.00043	0.13543
2648.07175	0.13557
2646.14308	0.13571
2644.21440	0.13588
2642.28573	0.13605
2640.35705	0.13622
2638.42837	0.13636
2636.49970	0.13650
2634.57102	0.13664
2632.64235	0.13679
2630.71367	0.13695
2628.78500	0.13709
2626.85632	0.13724
2624.92764	0.13740
2622.99897	0.13760
2621.07029	0.13780
2619.14162	0.13796
2617.21294	0.13811
2615.28427	0.13824
2613.35559	0.13836
2611.42691	0.13848
2609.49824	0.13866
2607.56956	0.13883
2605.64089	0.13896
2603.71221	0.13909
2601.78354	0.13928
2599.85486	0.13948
2597.92618	0.13962
2595.99751	0.13973
2594.06883	0.13988
2592.14016	0.14005
2590.21148	0.14020
2588.28281	0.14032
2586.35413	0.14046
2584.42545	0.14064
2582.49678	0.14080
2580.56810	0.14092
2578.63943	0.14104
2576.71075	0.14120
2574.78208	0.14135
2572.85340	0.14147
2570.92472	0.14160
2568.99605	0.14176
2567.06737	0.14193
2565.13870	0.14208
2563.21002	0.14224
2561.28135	0.14242
2559.35267	0.14259
2557.42399	0.14275
2555.49532	0.14287
2553.56664	0.14298
2551.63797	0.14309
2549.70929	0.14320
2547.78062	0.14332
2545.85194	0.14348
2543.92326	0.14367
2541.99459	0.14385
2540.06591	0.14400
2538.13724	0.14413
2536.20856	0.14424
2534.27989	0.14439
2532.35121	0.14455
2530.42253	0.14470
2528.49386	0.14484
2526.56518	0.14500
2524.63651	0.14515
2522.70783	0.14527
2520.77916	0.14539
2518.85048	0.14554
2516.92181	0.14574
2514.99313	0.14596
2513.06445	0.14614
2511.13578	0.14627
2509.20710	0.14640
2507.27843	0.14656
2505.34975	0.14675
2503.42108	0.14690
2501.49240	0.14702
2499.56372	0.14715
2497.63505	0.14731
2495.70637	0.14746
2493.77770	0.14761
2491.84902	0.14778
2489.92035	0.14797
2487.99167	0.14813
2486.06299	0.14829
2484.13432	0.14844
2482.20564	0.14860
2480.27697	0.14877
2478.34829	0.14893
2476.41962	0.14908
2474.49094	0.14923
2472.56226	0.14940
2470.63359	0.14955
2468.70491	0.14968
2466.77624	0.14981
2464.84756	0.14996
2462.91889	0.15012
2460.99021	0.15027
2459.06153	0.15042
2457.13286	0.15056
2455.20418	0.15071
2453.27551	0.15089
2451.34683	0.15104
2449.41816	0.15115
2447.48948	0.15127
2445.56080	0.15143
2443.63213	0.15162
2441.70345	0.15181
2439.77478	0.15200
2437.84610	0.15216
2435.91743	0.15229
2433.98875	0.15241
2432.06007	0.15255
2430.13140	0.15270
2428.20272	0.15285
2426.27405	0.15300
2424.34537	0.15315
2422.41670	0.15328
2420.48802	0.15342
2418.55934	0.15358
2416.63067	0.15375
2414.70199	0.15390
2412.77332	0.15405
2410.84464	0.15420
2408.91597	0.15433
2406.98729	0.15446
2405.05861	0.15458
2403.12994	0.15471
2401.20126	0.15486
2399.27259	0.15502
2397.34391	0.15517
2395.41524	0.15530
2393.48656	0.15544
2391.55788	0.15557
2389.62921	0.15569
2387.70053	0.15581
2385.77186	0.15593
2383.84318	0.15604
2381.91451	0.15610
2379.98583	0.15612
2378.05715	0.15614
2376.12848	0.15615
2374.19980	0.15612
2372.27113	0.15609
2370.34245	0.15607
2368.41378	0.15607
2366.48510	0.15611
2364.55642	0.15616
2362.62775	0.15622
2360.69907	0.15628
2358.77040	0.15636
2356.84172	0.15642
2354.91305	0.15644
2352.98437	0.15637
2351.05569	0.15612
2349.12702	0.15548
2347.19834	0.15433
2345.26967	0.15291
2343.34099	0.15177
2341.41232	0.15165
2339.48364	0.15296
2337.55496	0.15523
2335.62629	0.15730
2333.69761	0.15846
2331.76894	0.15892
2329.84026	0.15914
2327.91159	0.15936
2325.98291	0.15959
2324.05423	0.15985
2322.12556	0.16011
2320.19688	0.16038
2318.26821	0.16060
2316.33953	0.16077
2314.41086	0.16098
2312.48218	0.16124
2310.55350	0.16148
2308.62483	0.16164
2306.69615	0.16176
2304.76748	0.16190
2302.83880	0.16206
2300.91013	0.16225
2298.98145	0.16245
2297.05277	0.16262
2295.12410	0.16275
2293.19542	0.16290
2291.26675	0.16307
2289.33807	0.16323
2287.40940	0.16336
2285.48072	0.16347
2283.55204	0.16360
2281.62337	0.16377
2279.69469	0.16393
2277.76602	0.16406
2275.83734	0.16421
2273.90867	0.16434
2271.97999	0.16447
2270.05131	0.16464
2268.12264	0.16485
2266.19396	0.16504
2264.26529	0.16518
2262.33661	0.16531
2260.40794	0.16548
2258.47926	0.16566
2256.55058	0.16585
2254.62191	0.16605
2252.69323	0.16621
2250.76456	0.16636
2248.83588	0.16650
2246.90721	0.16663
2244.97853	0.16678
2243.04985	0.16694
2241.12118	0.16708
2239.19250	0.16719
2237.26383	0.16730
2235.33515	0.16745
2233.40648	0.16762
2231.47780	0.16781
2229.54912	0.16799
2227.62045	0.16816
2225.69177	0.16831
2223.76310	0.16846
2221.83442	0.16860
2219.90575	0.16875
2217.97707	0.16893
2216.04839	0.16910
2214.11972	0.16925
2212.19104	0.16941
2210.26237	0.16955
2208.33369	0.16964
2206.40502	0.16972
2204.47634	0.16985
2202.54766	0.17000
2200.61899	0.17017
2198.69031	0.17033
2196.76164	0.17049
2194.83296	0.17063
2192.90429	0.17079
2190.97561	0.17094
2189.04693	0.17108
2187.11826	0.17121
2185.18958	0.17135
2183.26091	0.17149
2181.33223	0.17165
2179.40356	0.17178
2177.47488	0.17190
2175.54620	0.17204
2173.61753	0.17218
2171.68885	0.17230
2169.76018	0.17244
2167.83150	0.17258
2165.90283	0.17272
2163.97415	0.17286
2162.04547	0.17302
2160.11680	0.17315
2158.18812	0.17327
2156.25945	0.17341
2154.33077	0.17357
2152.40210	0.17374
2150.47342	0.17389
2148.54474	0.17402
2146.61607	0.17413
2144.68739	0.17425
2142.75872	0.17439
2140.83004	0.17455
2138.90137	0.17470
2136.97269	0.17483
2135.04401	0.17497
2133.11534	0.17511
2131.18666	0.17524
2129.25799	0.17538
2127.32931	0.17553
2125.40064	0.17567
2123.47196	0.17583
2121.54328	0.17600
2119.61461	0.17614
2117.68593	0.17626
2115.75726	0.17641
2113.82858	0.17659
2111.89991	0.17676
2109.97123	0.17692
2108.04255	0.17708
2106.11388	0.17719
2104.18520	0.17728
2102.25653	0.17740
2100.32785	0.17760
2098.39918	0.17781
2096.47050	0.17798
2094.54182	0.17809
2092.61315	0.17818
2090.68447	0.17830
2088.75580	0.17848
2086.82712	0.17866
2084.89845	0.17879
2082.96977	0.17891
2081.04109	0.17904
2079.11242	0.17916
2077.18374	0.17928
2075.25507	0.17942
2073.32639	0.17960
2071.39772	0.17978
2069.46904	0.17990
2067.54036	0.17998
2065.61169	0.18011
2063.68301	0.18027
2061.75434	0.18040
2059.82566	0.18052
2057.89699	0.18067
2055.96831	0.18083
2054.03963	0.18099
2052.11096	0.18115
2050.18228	0.18128
2048.25361	0.18139
2046.32493	0.18149
2044.39626	0.18163
2042.46758	0.18179
2040.53890	0.18192
2038.61023	0.18205
2036.68155	0.18218
2034.75288	0.18229
2032.82420	0.18240
2030.89553	0.18252
2028.96685	0.18264
2027.03817	0.18277
2025.10950	0.18291
2023.18082	0.18307
2021.25215	0.18322
2019.32347	0.18332
2017.39480	0.18343
2015.46612	0.18361
2013.53744	0.18382
2011.60877	0.18401
2009.68009	0.18416
2007.75142	0.18431
2005.82274	0.18445
2003.89407	0.18459
2001.96539	0.18468
2000.03671	0.18475
1998.10804	0.18485
1996.17936	0.18498
1994.25069	0.18509
1992.32201	0.18517
1990.39334	0.18524
1988.46466	0.18536
1986.53598	0.18551
1984.60731	0.18566
1982.67863	0.18577
1980.74996	0.18588
1978.82128	0.18600
1976.89261	0.18612
1974.96393	0.18622
1973.03525	0.18634
1971.10658	0.18647
1969.17790	0.18654
1967.24923	0.18656
1965.32055	0.18665
1963.39188	0.18680
1961.46320	0.18693
1959.53452	0.18706
1957.60585	0.18722
1955.67717	0.18737
1953.74850	0.18753
1951.81982	0.18768
1949.89115	0.18781
1947.96247	0.18791
1946.03379	0.18798
1944.10512	0.18803
1942.17644	0.18815
1940.24777	0.18838
1938.31909	0.18860
1936.39042	0.18874
1934.46174	0.18885
1932.53306	0.18899
1930.60439	0.18913
1928.67571	0.18927
1926.74704	0.18938
1924.81836	0.18942
1922.88969	0.18949
1920.96101	0.18964
1919.03233	0.18977
1917.10366	0.18992
1915.17498	0.19017
1913.24631	0.19038
1911.31763	0.19047
1909.38896	0.19054
1907.46028	0.19066
1905.53160	0.19081
1903.60293	0.19094
1901.67425	0.19105
1899.74558	0.19112
1897.81690	0.19119
1895.88823	0.19128
1893.95955	0.19141
1892.03087	0.19149
1890.10220	0.19155
1888.17352	0.19173
1886.24485	0.19196
1884.31617	0.19213
1882.38750	0.19226
1880.45882	0.19239
1878.53014	0.19251
1876.60147	0.19264
1874.67279	0.19276
1872.74412	0.19278
1870.81544	0.19268
1868.88677	0.19267
1866.95809	0.19289
1865.02941	0.19319
1863.10074	0.19343
1861.17206	0.19359
1859.24339	0.19372
1857.31471	0.19386
1855.38604	0.19402
1853.45736	0.19418
1851.52868	0.19432
1849.60001	0.19441
1847.67133	0.19437
1845.74266	0.19425
1843.81398	0.19431
1841.88531	0.19467
1839.95663	0.19505
1838.02795	0.19529
1836.09928	0.19551
1834.17060	0.19566
1832.24193	0.19563
1830.31325	0.19556
1828.38458	0.19563
1826.45590	0.19580
1824.52722	0.19603
1822.59855	0.19631
1820.66987	0.19650
1818.74120	0.19662
1816.81252	0.19676
1814.88385	0.19692
1812.95517	0.19699
1811.02649	0.19702
1809.09782	0.19715
1807.16914	0.19734
1805.24047	0.19747
1803.31179	0.19746
1801.38312	0.19741
1799.45444	0.19748
1797.52576	0.19765
1795.59709	0.19770
1793.66841	0.19763
1791.73974	0.19768
1789.81106	0.19796
1787.88239	0.19818
1785.95371	0.19823
1784.02503	0.19829
1782.09636	0.19838
1780.16768	0.19846
1778.23901	0.19855
1776.31033	0.19853
1774.38166	0.19833
1772.45298	0.19818
1770.52430	0.19826
1768.59563	0.19847
1766.66695	0.19872
1764.73828	0.19891
1762.80960	0.19891
1760.88093	0.19888
1758.95225	0.19887
1757.02357	0.19885
1755.09490	0.19881
1753.16622	0.19857
1751.23755	0.19822
1749.30887	0.19812
1747.38020	0.19826
1745.45152	0.19838
1743.52284	0.19837
1741.59417	0.19823
1739.66549	0.19812
1737.73682	0.19801
1735.80814	0.19763
1733.87947	0.19735
1731.95079	0.19763
1730.02211	0.19809
1728.09344	0.19840
1726.16476	0.19859
1724.23609	0.19868
1722.30741	0.19864
1720.37874	0.19828
1718.45006	0.19783
1716.52138	0.19787
1714.59271	0.19840
1712.66403	0.19896
1710.73536	0.19927
1708.80668	0.19931
1706.87801	0.19922
1704.94933	0.19918
1703.02065	0.19897
1701.09198	0.19861
1699.16330	0.19856
1697.23463	0.19877
1695.30595	0.19904
1693.37728	0.19944
1691.44860	0.19966
1689.51992	0.19960
1687.59125	0.19935
1685.66257	0.19889
1683.73390	0.19872
1681.80522	0.19914
1679.87655	0.19960
1677.94787	0.19960
1676.01919	0.19935
1674.09052	0.19934
1672.16184	0.19944
1670.23317	0.19943
1668.30449	0.19960
1666.37582	0.19991
1664.44714	0.19996
1662.51846	0.19990
1660.58979	0.20003
1658.66111	0.20013
1656.73244	0.19977
1654.80376	0.19895
1652.87509	0.19860
1650.94641	0.19909
1649.01773	0.19947
1647.08906	0.19947
1645.16038	0.19971
1643.23171	0.20013
1641.30303	0.20028
1639.37436	0.20013
1637.44568	0.19983
1635.51700	0.19975
1633.58833	0.20007
1631.65965	0.20040
1629.73098	0.20044
1627.80230	0.20031
1625.87363	0.20007
1623.94495	0.19970
1622.01627	0.19939
1620.08760	0.19928
1618.15892	0.19941
1616.23025	0.19994
1614.30157	0.20075
1612.37290	0.20136
1610.44422	0.20168
1608.51554	0.20192
1606.58687	0.20217
1604.65819	0.20239
1602.72952	0.20254
1600.80084	0.20267
1598.87217	0.20282
1596.94349	0.20299
1595.01481	0.20317
1593.08614	0.20336
1591.15746	0.20351
1589.22879	0.20363
1587.30011	0.20375
1585.37144	0.20387
1583.44276	0.20398
1581.51408	0.20409
1579.58541	0.20406
1577.65673	0.20389
1575.72806	0.20397
1573.79938	0.20432
1571.87071	0.20441
1569.94203	0.20432
1568.01335	0.20445
1566.08468	0.20471
1564.15600	0.20484
1562.22733	0.20457
1560.29865	0.20391
1558.36998	0.20368
1556.44130	0.20429
1554.51262	0.20503
1552.58395	0.20541
1550.65527	0.20557
1548.72660	0.20569
1546.79792	0.20570
1544.86925	0.20546
1542.94057	0.20509
1541.01189	0.20490
1539.08322	0.20516
1537.15454	0.20568
1535.22587	0.20592
1533.29719	0.20597
1531.36852	0.20618
1529.43984	0.20632
1527.51116	0.20625
1525.58249	0.20613
1523.65381	0.20591
1521.72514	0.20569
1519.79646	0.20581
1517.86779	0.20607
1515.93911	0.20627
1514.01043	0.20640
1512.08176	0.20637
1510.15308	0.20607
1508.22441	0.20567
1506.29573	0.20577
1504.36706	0.20642
1502.43838	0.20688
1500.50970	0.20679
1498.58103	0.20647
1496.65235	0.20636
1494.72368	0.20651
1492.79500	0.20653
1490.86633	0.20623
1488.93765	0.20601
1487.00897	0.20605
1485.08030	0.20612
1483.15162	0.20603
1481.22295	0.20579
1479.29427	0.20545
1477.36560	0.20494
1475.43692	0.20429
1473.50824	0.20373
1471.57957	0.20347
1469.65089	0.20339
1467.72222	0.20314
1465.79354	0.20275
1463.86487	0.20255
1461.93619	0.20239
1460.00751	0.20180
1458.07884	0.20104
1456.15016	0.20091
1454.22149	0.20142
1452.29281	0.20183
1450.36414	0.20186
1448.43546	0.20174
1446.50678	0.20174
1444.57811	0.20189
1442.64943	0.20206
1440.72076	0.20209
1438.79208	0.20191
1436.86341	0.20180
1434.93473	0.20202
1433.00605	0.20231
1431.07738	0.20239
1429.14870	0.20244
1427.22003	0.20252
1425.29135	0.20254
1423.36268	0.20248
1421.43400	0.20220
1419.50532	0.20183
1417.57665	0.20187
1415.64797	0.20221
1413.71930	0.20236
1411.79062	0.20232
1409.86195	0.20226
1407.93327	0.20220
1406.00459	0.20212
1404.07592	0.20210
1402.14724	0.20199
1400.21857	0.20172
1398.28989	0.20148
1396.36122	0.20135
1394.43254	0.20129
1392.50386	0.20132
1390.57519	0.20123
1388.64651	0.20088
1386.71784	0.20046
1384.78916	0.20025
1382.86049	0.20025
1380.93181	0.20027
1379.00313	0.20019
1377.07446	0.20006
1375.14578	0.19993
1373.21711	0.19985
1371.28843	0.19981
1369.35976	0.19977
1367.43108	0.19975
1365.50240	0.19965
1363.57373	0.19945
1361.64505	0.19939
1359.71638	0.19952
1357.78770	0.19960
1355.85903	0.19959
1353.93035	0.19960
1352.00167	0.19962
1350.07300	0.19965
1348.14432	0.19972
1346.21565	0.19982
1344.28697	0.19985
1342.35830	0.19971
1340.42962	0.19943
1338.50094	0.19917
1336.57227	0.19902
1334.64359	0.19894
1332.71492	0.19884
1330.78624	0.19863
1328.85757	0.19836
1326.92889	0.19811
1325.00021	0.19785
1323.07154	0.19756
1321.14286	0.19729
1319.21419	0.19703
1317.28551	0.19675
1315.35684	0.19644
1313.42816	0.19613
1311.49948	0.19578
1309.57081	0.19541
1307.64213	0.19507
1305.71346	0.19475
1303.78478	0.19441
1301.85611	0.19402
1299.92743	0.19362
1297.99875	0.19325
1296.07008	0.19290
1294.14140	0.19253
1292.21273	0.19214
1290.28405	0.19172
1288.35538	0.19129
1286.42670	0.19085
1284.49802	0.19041
1282.56935	0.18999
1280.64067	0.18957
1278.71200	0.18913
1276.78332	0.18865
1274.85465	0.18806
1272.92597	0.18738
1270.99729	0.18659
1269.06862	0.18562
1267.13994	0.18449
1265.21127	0.18333
1263.28259	0.18238
1261.35392	0.18178
1259.42524	0.18150
1257.49656	0.18134
1255.56789	0.18109
1253.63921	0.18062
1251.71054	0.17994
1249.78186	0.17913
1247.85319	0.17822
1245.92451	0.17722
1243.99583	0.17620
1242.06716	0.17513
1240.13848	0.17399
1238.20981	0.17282
1236.28113	0.17165
1234.35246	0.17047
1232.42378	0.16924
1230.49510	0.16797
1228.56643	0.16673
1226.63775	0.16559
1224.70908	0.16454
1222.78040	0.16350
1220.85173	0.16240
1218.92305	0.16129
1216.99437	0.16024
1215.06570	0.15921
1213.13702	0.15812
1211.20835	0.15700
1209.27967	0.15590
1207.35100	0.15485
1205.42232	0.15380
1203.49364	0.15272
1201.56497	0.15161
1199.63629	0.15049
1197.70762	0.14940
1195.77894	0.14837
1193.85027	0.14740
1191.92159	0.14637
1189.99291	0.14525
1188.06424	0.14413
1186.13556	0.14305
1184.20689	0.14192
1182.27821	0.14075
1180.34954	0.13959
1178.42086	0.13845
1176.49218	0.13730
1174.56351	0.13617
1172.63483	0.13500
1170.70616	0.13380
1168.77748	0.13263
1166.84881	0.13154
1164.92013	0.13044
1162.99145	0.12931
1161.06278	0.12818
1159.13410	0.12707
1157.20543	0.12600
1155.27675	0.12497
1153.34808	0.12395
1151.41940	0.12291
1149.49072	0.12187
1147.56205	0.12082
1145.63337	0.11975
1143.70470	0.11868
1141.77602	0.11760
1139.84735	0.11648
1137.91867	0.11525
1135.98999	0.11390
1134.06132	0.11246
1132.13264	0.11089
1130.20397	0.10915
1128.27529	0.10719
1126.34662	0.10505
1124.41794	0.10287
1122.48926	0.10069
1120.56059	0.09847
1118.63191	0.09626
1116.70324	0.09411
1114.77456	0.09206
1112.84589	0.09012
1110.91721	0.08830
1108.98853	0.08658
1107.05986	0.08495
1105.13118	0.08339
1103.20251	0.08190
1101.27383	0.08045
1099.34516	0.07896
1097.41648	0.07742
1095.48780	0.07583
1093.55913	0.07423
1091.63045	0.07265
1089.70178	0.07112
1087.77310	0.06959
1085.84443	0.06808
1083.91575	0.06665
1081.98707	0.06535
1080.05840	0.06413
1078.12972	0.06299
1076.20105	0.06202
1074.27237	0.06120
1072.34370	0.06051
1070.41502	0.06002
1068.48634	0.05975
1066.55767	0.05959
1064.62899	0.05951
1062.70032	0.05958
1060.77164	0.05976
1058.84297	0.06006
1056.91429	0.06049
1054.98561	0.06105
1053.05694	0.06173
1051.12826	0.06249
1049.19959	0.06326
1047.27091	0.06409
1045.34224	0.06507
1043.41356	0.06619
1041.48488	0.06746
1039.55621	0.06886
1037.62753	0.07032
1035.69886	0.07185
1033.77018	0.07345
1031.84151	0.07516
1029.91283	0.07702
1027.98415	0.07902
1026.05548	0.08112
1024.12680	0.08335
1022.19813	0.08570
1020.26945	0.08819
1018.34078	0.09079
1016.41210	0.09349
1014.48342	0.09628
1012.55475	0.09920
1010.62607	0.10219
1008.69740	0.10522
1006.76872	0.10824
1004.84005	0.11119
1002.91137	0.11401
1000.98269	0.11662
999.05402	0.11896
997.12534	0.12114
995.19667	0.12322
993.26799	0.12512
991.33932	0.12678
989.41064	0.12824
987.48196	0.12952
985.55329	0.13062
983.62461	0.13155
981.69594	0.13230
979.76726	0.13283
977.83859	0.13321
975.90991	0.13353
973.98123	0.13377
972.05256	0.13389
970.12388	0.13392
968.19521	0.13393
966.26653	0.13394
964.33786	0.13387
962.40918	0.13368
960.48050	0.13347
958.55183	0.13333
956.62315	0.13325
954.69448	0.13315
952.76580	0.13295
950.83713	0.13264
948.90845	0.13234
946.97977	0.13215
945.05110	0.13201
943.12242	0.13177
941.19375	0.13139
939.26507	0.13095
937.33640	0.13050
935.40772	0.13006
933.47904	0.12969
931.55037	0.12937
929.62169	0.12900
927.69302	0.12860
925.76434	0.12818
923.83567	0.12773
921.90699	0.12727
919.97831	0.12681
918.04964	0.12629
916.12096	0.12570
914.19229	0.12507
912.26361	0.12444
910.33494	0.12388
908.40626	0.12336
906.47758	0.12283
904.54891	0.12230
902.62023	0.12182
900.69156	0.12136
898.76288	0.12091
896.83421	0.12048
894.90553	0.11999
892.97685	0.11950
891.04818	0.11913
889.11950	0.11886
887.19083	0.11857
885.26215	0.11828
883.33348	0.11804
881.40480	0.11784
879.47612	0.11762
877.54745	0.11742
875.61877	0.11730
873.69010	0.11725
871.76142	0.11725
869.83275	0.11729
867.90407	0.11728
865.97539	0.11721
864.04672	0.11715
862.11804	0.11706
860.18937	0.11688
858.26069	0.11664
856.33202	0.11640
854.40334	0.11605
852.47466	0.11552
850.54599	0.11489
848.61731	0.11427
846.68864	0.11370
844.75996	0.11319
842.83129	0.11269
840.90261	0.11210
838.97394	0.11138
837.04526	0.11055
835.11658	0.10960
833.18791	0.10853
831.25923	0.10736
829.33056	0.10614
827.40188	0.10494
825.47321	0.10382
823.54453	0.10280
821.61585	0.10186
819.68718	0.10103
817.75850	0.10033
815.82983	0.09978
813.90115	0.09932
811.97248	0.09892
810.04380	0.09858
808.11512	0.09837
806.18645	0.09827
804.25777	0.09822
802.32910	0.09819
800.40042	0.09812
798.47175	0.09791
796.54307	0.09756
794.61439	0.09719
792.68572	0.09694
790.75704	0.09685
788.82837	0.09691
786.89969	0.09705
784.97102	0.09716
783.04234	0.09724
781.11366	0.09732
779.18499	0.09736
777.25631	0.09733
775.32764	0.09732
773.39896	0.09733
771.47029	0.09731
769.54161	0.09729
767.61293	0.09726
765.68426	0.09712
763.75558	0.09684
761.82691	0.09653
759.89823	0.09618
757.96956	0.09579
756.04088	0.09543
754.11220	0.09505
752.18353	0.09455
750.25485	0.09394
748.32618	0.09333
746.39750	0.09270
744.46883	0.09196
742.54015	0.09115
740.61147	0.09042
738.68280	0.08992
736.75412	0.08968
734.82545	0.08967
732.89677	0.08978
730.96810	0.08992
729.03942	0.09003
727.11074	0.09010
725.18207	0.09022
723.25339	0.09036
721.32472	0.09048
719.39604	0.09062
717.46737	0.09086
715.53869	0.09122
713.61001	0.09163
711.68134	0.09206
709.75266	0.09233
707.82399	0.09234
705.89531	0.09220
703.96664	0.09205
702.03796	0.09186
700.10928	0.09153
698.18061	0.09108
696.25193	0.09053
694.32326	0.08994
692.39458	0.08932
690.46591	0.08871
688.53723	0.08824
686.60855	0.08792
684.67988	0.08756
682.75120	0.08704
680.82253	0.08643
678.89385	0.08580
676.96518	0.08518
675.03650	0.08455
673.10782	0.08386
671.17915	0.08295
669.25047	0.08188
667.32180	0.08098
665.39312	0.08036
663.46445	0.07966
661.53577	0.07879
659.60709	0.07792
657.67842	0.07705
655.74974	0.07623
653.82107	0.07557
651.89239	0.07495
649.96372	0.07428
648.03504	0.07352
646.10636	0.07268
644.17769	0.07179
642.24901	0.07082
640.32034	0.06977
638.39166	0.06867
636.46299	0.06759
634.53431	0.06650
632.60563	0.06512
630.67696	0.06301
628.74828	0.05976
626.81961	0.05560
624.89093	0.05143
622.96226	0.04803
621.03358	0.04581
619.10490	0.04466
617.17623	0.04399
615.24755	0.04324
613.31888	0.04218
611.39020	0.04109
609.46153	0.04054
607.53285	0.04063
605.60417	0.04100
603.67550	0.04148
601.74682	0.04217
599.81815	0.04305
597.88947	0.04383
595.96080	0.04440
594.03212	0.04487
592.10344	0.04525
590.17477	0.04539
588.24609	0.04530
586.31742	0.04512
584.38874	0.04485
582.46007	0.04441
580.53139	0.04391
578.60271	0.04349
576.67404	0.04315
574.74536	0.04277
572.81669	0.04229
570.88801	0.04167
568.95934	0.04099
567.03066	0.04041
565.10198	0.04000
563.17331	0.03973
561.24463	0.03951
559.31596	0.03927
557.38728	0.03901
555.45861	0.03879
553.52993	0.03858
551.60125	0.03832
549.67258	0.03805
547.74390	0.03791
545.81523	0.03784
543.88655	0.03780
541.95788	0.03770
540.02920	0.03757
538.10052	0.03749
536.17185	0.03743
534.24317	0.03725
532.31450	0.03693
530.38582	0.03658
528.45715	0.03627
526.52847	0.03600
524.59979	0.03568
522.67112	0.03523
520.74244	0.03465
518.81377	0.03399
516.88509	0.03331
514.95642	0.03275
513.02774	0.03239
511.09906	0.03214
509.17039	0.03186
507.24171	0.03159
505.31304	0.03141
503.38436	0.03117
501.45569	0.03072
499.52701	0.03007
497.59833	0.02935
495.66966	0.02864
493.74098	0.02790
491.81231	0.02714
489.88363	0.02649
487.95496	0.02593
486.02628	0.02537
484.09760	0.02477
482.16893	0.02418
480.24025	0.02356
478.31158	0.02277
476.38290	0.02186
474.45423	0.02104
472.52555	0.02040
470.59687	0.01989
468.66820	0.01942
466.73952	0.01894
464.81085	0.01852
462.88217	0.01823
460.95350	0.01798
459.02482	0.01775
457.09614	0.01764
455.16747	0.01759
453.23879	0.01748
451.31012	0.01737
449.38144	0.01736
447.45277	0.01737
445.52409	0.01730
443.59541	0.01717
441.66674	0.01699
439.73806	0.01672
437.80939	0.01631
435.88071	0.01587
433.95204	0.01550
432.02336	0.01517
430.09468	0.01484
428.16601	0.01447
426.23733	0.01402
424.30866	0.01354
422.37998	0.01304
420.45131	0.01253
418.52263	0.01205
416.59395	0.01166
414.66528	0.01139
412.73660	0.01112
410.80793	0.01070
408.87925	0.01016
406.95058	0.00965
405.02190	0.00919
403.09322	0.00876
401.16455	0.00833
399.23587	0.00784
397.30720	0.00734
395.37852	0.00689
393.44985	0.00647
391.52117	0.00603
389.59249	0.00562
387.66382	0.00531
385.73514	0.00503
383.80647	0.00466
381.87779	0.00421
379.94912	0.00386
378.02044	0.00359
376.09176	0.00323
374.16309	0.00289
372.23441	0.00266
370.30574	0.00241
368.37706	0.00214
