7496.76250	0.00126
7494.83382	0.00126
7492.90514	0.00128
7490.97647	0.00128
7489.04779	0.00127
7487.11912	0.00127
7485.19044	0.00128
7483.26177	0.00129
7481.33309	0.00129
7479.40441	0.00128
7477.47574	0.00127
7475.54706	0.00127
7473.61839	0.00129
7471.68971	0.00131
7469.76104	0.00132
7467.83236	0.00132
7465.90368	0.00133
7463.97501	0.00134
7462.04633	0.00136
7460.11766	0.00136
7458.18898	0.00134
7456.26031	0.00134
7454.33163	0.00134
7452.40295	0.00134
7450.47428	0.00134
7448.54560	0.00135
7446.61693	0.00136
7444.68825	0.00137
7442.75958	0.00138
7440.83090	0.00139
7438.90222	0.00139
7436.97355	0.00141
7435.04487	0.00141
7433.11620	0.00141
7431.18752	0.00140
7429.25885	0.00139
7427.33017	0.00138
7425.40149	0.00138
7423.47282	0.00139
7421.54414	0.00140
7419.61547	0.00141
7417.68679	0.00141
7415.75812	0.00141
7413.82944	0.00142
7411.90076	0.00144
7409.97209	0.00145
7408.04341	0.00144
7406.11474	0.00144
7404.18606	0.00144
7402.25739	0.00144
7400.32871	0.00145
7398.40003	0.00146
7396.47136	0.00146
7394.54268	0.00145
7392.61401	0.00146
7390.68533	0.00147
7388.75666	0.00148
7386.82798	0.00149
7384.89930	0.00149
7382.97063	0.00149
7381.04195	0.00149
7379.11328	0.00150
7377.18460	0.00151
7375.25593	0.00152
7373.32725	0.00153
7371.39857	0.00154
7369.46990	0.00153
7367.54122	0.00152
7365.61255	0.00151
7363.68387	0.00150
7361.75520	0.00151
7359.82652	0.00153
7357.89784	0.00154
7355.96917	0.00154
7354.04049	0.00154
7352.11182	0.00154
7350.18314	0.00156
7348.25447	0.00159
7346.32579	0.00159
7344.39711	0.00158
7342.46844	0.00159
7340.53976	0.00160
7338.61109	0.00161
7336.68241	0.00161
7334.75374	0.00159
7332.82506	0.00159
7330.89638	0.00160
7328.96771	0.00161
7327.03903	0.00161
7325.11036	0.00160
7323.18168	0.00160
7321.25301	0.00160
7319.32433	0.00160
7317.39565	0.00161
7315.46698	0.00163
7313.53830	0.00164
7311.60963	0.00164
7309.68095	0.00163
7307.75228	0.00163
7305.82360	0.00165
7303.89492	0.00167
7301.96625	0.00167
7300.03757	0.00166
7298.10890	0.00166
7296.18022	0.00166
7294.25155	0.00167
7292.32287	0.00167
7290.39419	0.00167
7288.46552	0.00169
7286.53684	0.00170
7284.60817	0.00169
7282.67949	0.00169
7280.75082	0.00169
7278.82214	0.00170
7276.89346	0.00171
7274.96479	0.00172
7273.03611	0.00172
7271.10744	0.00171
7269.17876	0.00172
7267.25009	0.00173
7265.32141	0.00175
7263.39273	0.00175
7261.46406	0.00173
7259.53538	0.00172
7257.60671	0.00174
7255.67803	0.00176
7253.74936	0.00176
7251.82068	0.00175
7249.89200	0.00175
7247.96333	0.00176
7246.03465	0.00177
7244.10598	0.00177
7242.17730	0.00177
7240.24863	0.00179
7238.31995	0.00181
7236.39127	0.00181
7234.46260	0.00181
7232.53392	0.00180
7230.60525	0.00181
7228.67657	0.00181
7226.74790	0.00182
7224.81922	0.00184
7222.89054	0.00184
7220.96187	0.00183
7219.03319	0.00183
7217.10452	0.00185
7215.17584	0.00186
7213.24717	0.00186
7211.31849	0.00185
7209.38981	0.00186
7207.46114	0.00187
7205.53246	0.00188
7203.60379	0.00189
7201.67511	0.00190
7199.74644	0.00191
7197.81776	0.00191
7195.88908	0.00190
7193.96041	0.00188
7192.03173	0.00189
7190.10306	0.00191
7188.17438	0.00191
7186.24571	0.00190
7184.31703	0.00191
7182.38835	0.00193
7180.45968	0.00194
7178.53100	0.00194
7176.60233	0.00194
7174.67365	0.00194
7172.74498	0.00194
7170.81630	0.00194
7168.88762	0.00195
7166.95895	0.00197
7165.03027	0.00198
7163.10160	0.00197
7161.17292	0.00196
7159.24425	0.00196
7157.31557	0.00197
7155.38689	0.00198
7153.45822	0.00199
7151.52954	0.00200
7149.60087	0.00200
7147.67219	0.00201
7145.74352	0.00203
7143.81484	0.00203
7141.88616	0.00200
7139.95749	0.00198
7138.02881	0.00200
7136.10014	0.00202
7134.17146	0.00205
7132.24279	0.00206
7130.31411	0.00207
7128.38543	0.00207
7126.45676	0.00206
7124.52808	0.00205
7122.59941	0.00205
7120.67073	0.00207
7118.74206	0.00209
7116.81338	0.00208
7114.88470	0.00207
7112.95603	0.00207
7111.02735	0.00208
7109.09868	0.00210
7107.17000	0.00211
7105.24133	0.00213
7103.31265	0.00213
7101.38397	0.00213
7099.45530	0.00213
7097.52662	0.00214
7095.59795	0.00215
7093.66927	0.00215
7091.74060	0.00215
7089.81192	0.00215
7087.88324	0.00215
7085.95457	0.00216
7084.02589	0.00216
7082.09722	0.00216
7080.16854	0.00217
7078.23987	0.00218
7076.31119	0.00219
7074.38251	0.00220
7072.45384	0.00220
7070.52516	0.00220
7068.59649	0.00220
7066.66781	0.00221
7064.73914	0.00221
7062.81046	0.00222
7060.88178	0.00223
7058.95311	0.00224
7057.02443	0.00224
7055.09576	0.00224
7053.16708	0.00225
7051.23841	0.00226
7049.30973	0.00226
7047.38105	0.00226
7045.45238	0.00226
7043.52370	0.00226
7041.59503	0.00227
7039.66635	0.00229
7037.73768	0.00230
7035.80900	0.00230
7033.88032	0.00229
7031.95165	0.00228
7030.02297	0.00229
7028.09430	0.00231
7026.16562	0.00233
7024.23695	0.00234
7022.30827	0.00234
7020.37959	0.00234
7018.45092	0.00235
7016.52224	0.00236
7014.59357	0.00238
7012.66489	0.00239
7010.73622	0.00239
7008.80754	0.00238
7006.87886	0.00237
7004.95019	0.00236
7003.02151	0.00237
7001.09284	0.00239
6999.16416	0.00239
6997.23549	0.00240
6995.30681	0.00241
6993.37813	0.00242
6991.44946	0.00242
6989.52078	0.00242
6987.59211	0.00242
6985.66343	0.00243
6983.73476	0.00245
6981.80608	0.00245
6979.87740	0.00245
6977.94873	0.00245
6976.02005	0.00245
6974.09138	0.00246
6972.16270	0.00247
6970.23403	0.00247
6968.30535	0.00248
6966.37667	0.00248
6964.44800	0.00248
6962.51932	0.00249
6960.59065	0.00251
6958.66197	0.00252
6956.73330	0.00251
6954.80462	0.00251
6952.87594	0.00252
6950.94727	0.00254
6949.01859	0.00255
6947.08992	0.00254
6945.16124	0.00253
6943.23257	0.00252
6941.30389	0.00253
6939.37521	0.00255
6937.44654	0.00256
6935.51786	0.00259
6933.58919	0.00261
6931.66051	0.00261
6929.73184	0.00261
6927.80316	0.00261
6925.87448	0.00260
6923.94581	0.00259
6922.01713	0.00260
6920.08846	0.00262
6918.15978	0.00264
6916.23111	0.00264
6914.30243	0.00264
6912.37375	0.00265
6910.44508	0.00266
6908.51640	0.00268
6906.58773	0.00269
6904.65905	0.00270
6902.73038	0.00271
6900.80170	0.00270
6898.87302	0.00269
6896.94435	0.00267
6895.01567	0.00267
6893.08700	0.00270
6891.15832	0.00273
6889.22965	0.00275
6887.30097	0.00275
6885.37229	0.00275
6883.44362	0.00275
6881.51494	0.00274
6879.58627	0.00273
6877.65759	0.00273
6875.72892	0.00274
6873.80024	0.00276
6871.87156	0.00278
6869.94289	0.00279
6868.01421	0.00279
6866.08554	0.00280
6864.15686	0.00281
6862.22819	0.00281
6860.29951	0.00280
6858.37083	0.00280
6856.44216	0.00282
6854.51348	0.00282
6852.58481	0.00282
6850.65613	0.00283
6848.72746	0.00285
6846.79878	0.00286
6844.87010	0.00287
6842.94143	0.00288
6841.01275	0.00288
6839.08408	0.00287
6837.15540	0.00286
6835.22673	0.00286
6833.29805	0.00287
6831.36937	0.00290
6829.44070	0.00293
6827.51202	0.00294
6825.58335	0.00294
6823.65467	0.00293
6821.72600	0.00293
6819.79732	0.00293
6817.86864	0.00293
6815.93997	0.00294
6814.01129	0.00295
6812.08262	0.00296
6810.15394	0.00298
6808.22527	0.00299
6806.29659	0.00301
6804.36791	0.00300
6802.43924	0.00299
6800.51056	0.00300
6798.58189	0.00302
6796.65321	0.00304
6794.72454	0.00304
6792.79586	0.00304
6790.86718	0.00305
6788.93851	0.00305
6787.00983	0.00306
6785.08116	0.00306
6783.15248	0.00307
6781.22381	0.00308
6779.29513	0.00309
6777.36645	0.00310
6775.43778	0.00311
6773.50910	0.00310
6771.58043	0.00310
6769.65175	0.00312
6767.72308	0.00314
6765.79440	0.00314
6763.86572	0.00313
6761.93705	0.00313
6760.00837	0.00316
6758.07970	0.00316
6756.15102	0.00316
6754.22235	0.00316
6752.29367	0.00317
6750.36499	0.00318
6748.43632	0.00319
6746.50764	0.00321
6744.57897	0.00323
6742.65029	0.00323
6740.72162	0.00322
6738.79294	0.00322
6736.86426	0.00324
6734.93559	0.00326
6733.00691	0.00326
6731.07824	0.00326
6729.14956	0.00327
6727.22089	0.00329
6725.29221	0.00329
6723.36353	0.00328
6721.43486	0.00327
6719.50618	0.00328
6717.57751	0.00328
6715.64883	0.00328
6713.72016	0.00329
6711.79148	0.00331
6709.86280	0.00331
6707.93413	0.00332
6706.00545	0.00333
6704.07678	0.00336
6702.14810	0.00338
6700.21943	0.00339
6698.29075	0.00341
6696.36207	0.00341
6694.43340	0.00340
6692.50472	0.00339
6690.57605	0.00341
6688.64737	0.00343
6686.71870	0.00345
6684.79002	0.00345
6682.86134	0.00345
6680.93267	0.00346
6679.00399	0.00347
6677.07532	0.00347
6675.14664	0.00348
6673.21797	0.00349
6671.28929	0.00350
6669.36061	0.00350
6667.43194	0.00351
6665.50326	0.00352
6663.57459	0.00353
6661.64591	0.00354
6659.71724	0.00354
6657.78856	0.00355
6655.85988	0.00355
6653.93121	0.00355
6652.00253	0.00356
6650.07386	0.00358
6648.14518	0.00362
6646.21651	0.00362
6644.28783	0.00361
6642.35915	0.00361
6640.43048	0.00362
6638.50180	0.00364
6636.57313	0.00366
6634.64445	0.00367
6632.71578	0.00366
6630.78710	0.00365
6628.85842	0.00366
6626.92975	0.00368
6625.00107	0.00370
6623.07240	0.00371
6621.14372	0.00372
6619.21505	0.00373
6617.28637	0.00373
6615.35769	0.00373
6613.42902	0.00374
6611.50034	0.00375
6609.57167	0.00375
6607.64299	0.00375
6605.71432	0.00376
6603.78564	0.00378
6601.85696	0.00378
6599.92829	0.00377
6597.99961	0.00377
6596.07094	0.00379
6594.14226	0.00382
6592.21359	0.00383
6590.28491	0.00383
6588.35623	0.00384
6586.42756	0.00383
6584.49888	0.00383
6582.57021	0.00384
6580.64153	0.00385
6578.71286	0.00388
6576.78418	0.00391
6574.85550	0.00393
6572.92683	0.00393
6570.99815	0.00392
6569.06948	0.00392
6567.14080	0.00394
6565.21213	0.00395
6563.28345	0.00395
6561.35477	0.00395
6559.42610	0.00396
6557.49742	0.00397
6555.56875	0.00398
6553.64007	0.00398
6551.71140	0.00398
6549.78272	0.00399
6547.85404	0.00401
6545.92537	0.00403
6543.99669	0.00405
6542.06802	0.00408
6540.13934	0.00409
6538.21067	0.00409
6536.28199	0.00409
6534.35331	0.00409
6532.42464	0.00409
6530.49596	0.00410
6528.56729	0.00412
6526.63861	0.00413
6524.70994	0.00414
6522.78126	0.00413
6520.85258	0.00412
6518.92391	0.00413
6516.99523	0.00416
6515.06656	0.00418
6513.13788	0.00419
6511.20921	0.00421
6509.28053	0.00424
6507.35185	0.00426
6505.42318	0.00426
6503.49450	0.00425
6501.56583	0.00425
6499.63715	0.00426
6497.70848	0.00426
6495.77980	0.00425
6493.85112	0.00425
6491.92245	0.00426
6489.99377	0.00429
6488.06510	0.00431
6486.13642	0.00432
6484.20775	0.00433
6482.27907	0.00434
6480.35039	0.00435
6478.42172	0.00435
6476.49304	0.00436
6474.56437	0.00436
6472.63569	0.00437
6470.70702	0.00439
6468.77834	0.00443
6466.84966	0.00445
6464.92099	0.00445
6462.99231	0.00444
6461.06364	0.00444
6459.13496	0.00445
6457.20629	0.00446
6455.27761	0.00448
6453.34893	0.00449
6451.42026	0.00449
6449.49158	0.00450
6447.56291	0.00450
6445.63423	0.00451
6443.70556	0.00453
6441.77688	0.00455
6439.84820	0.00457
6437.91953	0.00459
6435.99085	0.00460
6434.06218	0.00460
6432.13350	0.00460
6430.20483	0.00460
6428.27615	0.00460
6426.34747	0.00461
6424.41880	0.00463
6422.49012	0.00464
6420.56145	0.00465
6418.63277	0.00466
6416.70410	0.00468
6414.77542	0.00469
6412.84674	0.00469
6410.91807	0.00470
6408.98939	0.00471
6407.06072	0.00471
6405.13204	0.00472
6403.20337	0.00474
6401.27469	0.00478
6399.34601	0.00479
6397.41734	0.00480
6395.48866	0.00480
6393.55999	0.00481
6391.63131	0.00482
6389.70264	0.00483
6387.77396	0.00483
6385.84528	0.00484
6383.91661	0.00485
6381.98793	0.00486
6380.05926	0.00486
6378.13058	0.00487
6376.20191	0.00489
6374.27323	0.00490
6372.34455	0.00491
6370.41588	0.00492
6368.48720	0.00492
6366.55853	0.00494
6364.62985	0.00495
6362.70118	0.00497
6360.77250	0.00499
6358.84382	0.00502
6356.91515	0.00504
6354.98647	0.00504
6353.05780	0.00505
6351.12912	0.00507
6349.20045	0.00508
6347.27177	0.00508
6345.34309	0.00509
6343.41442	0.00511
6341.48574	0.00513
6339.55707	0.00514
6337.62839	0.00514
6335.69972	0.00516
6333.77104	0.00518
6331.84236	0.00519
6329.91369	0.00520
6327.98501	0.00520
6326.05634	0.00520
6324.12766	0.00519
6322.19899	0.00520
6320.27031	0.00522
6318.34163	0.00523
6316.41296	0.00523
6314.48428	0.00524
6312.55561	0.00526
6310.62693	0.00528
6308.69826	0.00528
6306.76958	0.00530
6304.84090	0.00532
6302.91223	0.00533
6300.98355	0.00534
6299.05488	0.00536
6297.12620	0.00537
6295.19753	0.00538
6293.26885	0.00539
6291.34017	0.00540
6289.41150	0.00541
6287.48282	0.00542
6285.55415	0.00542
6283.62547	0.00543
6281.69680	0.00546
6279.76812	0.00550
6277.83944	0.00552
6275.91077	0.00552
6273.98209	0.00552
6272.05342	0.00553
6270.12474	0.00556
6268.19607	0.00559
6266.26739	0.00561
6264.33871	0.00560
6262.41004	0.00560
6260.48136	0.00562
6258.55269	0.00564
6256.62401	0.00565
6254.69534	0.00567
6252.76666	0.00567
6250.83798	0.00568
6248.90931	0.00570
6246.98063	0.00572
6245.05196	0.00572
6243.12328	0.00572
6241.19461	0.00573
6239.26593	0.00575
6237.33725	0.00576
6235.40858	0.00578
6233.47990	0.00578
6231.55123	0.00579
6229.62255	0.00580
6227.69388	0.00583
6225.76520	0.00584
6223.83652	0.00585
6221.90785	0.00586
6219.97917	0.00588
6218.05050	0.00588
6216.12182	0.00588
6214.19315	0.00590
6212.26447	0.00590
6210.33579	0.00591
6208.40712	0.00593
6206.47844	0.00597
6204.54977	0.00600
6202.62109	0.00600
6200.69242	0.00600
6198.76374	0.00601
6196.83506	0.00604
6194.90639	0.00606
6192.97771	0.00606
6191.04904	0.00606
6189.12036	0.00607
6187.19169	0.00607
6185.26301	0.00608
6183.33433	0.00609
6181.40566	0.00612
6179.47698	0.00613
6177.54831	0.00615
6175.61963	0.00616
6173.69096	0.00618
6171.76228	0.00619
6169.83360	0.00620
6167.90493	0.00620
6165.97625	0.00622
6164.04758	0.00625
6162.11890	0.00628
6160.19023	0.00629
6158.26155	0.00631
6156.33287	0.00633
6154.40420	0.00635
6152.47552	0.00635
6150.54685	0.00636
6148.61817	0.00636
6146.68950	0.00637
6144.76082	0.00639
6142.83214	0.00642
6140.90347	0.00644
6138.97479	0.00644
6137.04612	0.00643
6135.11744	0.00644
6133.18877	0.00647
6131.26009	0.00651
6129.33141	0.00655
6127.40274	0.00657
6125.47406	0.00657
6123.54539	0.00657
6121.61671	0.00658
6119.68804	0.00660
6117.75936	0.00662
6115.83068	0.00663
6113.90201	0.00665
6111.97333	0.00667
6110.04466	0.00669
6108.11598	0.00671
6106.18731	0.00671
6104.25863	0.00669
6102.32995	0.00668
6100.40128	0.00668
6098.47260	0.00669
6096.54393	0.00672
6094.61525	0.00676
6092.68658	0.00678
6090.75790	0.00679
6088.82922	0.00679
6086.90055	0.00680
6084.97187	0.00681
6083.04320	0.00684
6081.11452	0.00687
6079.18585	0.00690
6077.25717	0.00693
6075.32849	0.00695
6073.39982	0.00694
6071.47114	0.00693
6069.54247	0.00697
6067.61379	0.00701
6065.68512	0.00703
6063.75644	0.00702
6061.82776	0.00702
6059.89909	0.00703
6057.97041	0.00705
6056.04174	0.00708
6054.11306	0.00710
6052.18439	0.00711
6050.25571	0.00713
6048.32703	0.00714
6046.39836	0.00716
6044.46968	0.00718
6042.54101	0.00721
6040.61233	0.00723
6038.68366	0.00725
6036.75498	0.00725
6034.82630	0.00724
6032.89763	0.00724
6030.96895	0.00726
6029.04028	0.00729
6027.11160	0.00730
6025.18293	0.00731
6023.25425	0.00733
6021.32557	0.00735
6019.39690	0.00737
6017.46822	0.00738
6015.53955	0.00739
6013.61087	0.00743
6011.68220	0.00746
6009.75352	0.00747
6007.82484	0.00747
6005.89617	0.00749
6003.96749	0.00750
6002.03882	0.00751
6000.11014	0.00752
5998.18147	0.00754
5996.25279	0.00756
5994.32411	0.00757
5992.39544	0.00758
5990.46676	0.00759
5988.53809	0.00761
5986.60941	0.00764
5984.68074	0.00766
5982.75206	0.00769
5980.82338	0.00772
5978.89471	0.00773
5976.96603	0.00773
5975.03736	0.00774
5973.10868	0.00776
5971.18001	0.00780
5969.25133	0.00781
5967.32265	0.00782
5965.39398	0.00783
5963.46530	0.00784
5961.53663	0.00787
5959.60795	0.00791
5957.67928	0.00794
5955.75060	0.00795
5953.82192	0.00795
5951.89325	0.00796
5949.96457	0.00797
5948.03590	0.00799
5946.10722	0.00802
5944.17855	0.00806
5942.24987	0.00807
5940.32119	0.00805
5938.39252	0.00805
5936.46384	0.00807
5934.53517	0.00810
5932.60649	0.00812
5930.67782	0.00814
5928.74914	0.00818
5926.82046	0.00821
5924.89179	0.00822
5922.96311	0.00824
5921.03444	0.00826
5919.10576	0.00828
5917.17709	0.00829
5915.24841	0.00830
5913.31973	0.00832
5911.39106	0.00834
5909.46238	0.00833
5907.53371	0.00833
5905.60503	0.00834
5903.67636	0.00836
5901.74768	0.00839
5899.81900	0.00842
5897.89033	0.00845
5895.96165	0.00849
5894.03298	0.00852
5892.10430	0.00853
5890.17563	0.00853
5888.24695	0.00854
5886.31827	0.00855
5884.38960	0.00858
5882.46092	0.00860
5880.53225	0.00863
5878.60357	0.00866
5876.67490	0.00869
5874.74622	0.00871
5872.81755	0.00872
5870.88887	0.00874
5868.96019	0.00874
5867.03152	0.00873
5865.10284	0.00874
5863.17417	0.00877
5861.24549	0.00880
5859.31682	0.00881
5857.38814	0.00882
5855.45946	0.00884
5853.53079	0.00887
5851.60211	0.00891
5849.67344	0.00892
5847.74476	0.00893
5845.81609	0.00896
5843.88741	0.00899
5841.95873	0.00901
5840.03006	0.00902
5838.10138	0.00905
5836.17271	0.00908
5834.24403	0.00909
5832.31536	0.00909
5830.38668	0.00911
5828.45800	0.00913
5826.52933	0.00914
5824.60065	0.00915
5822.67198	0.00918
5820.74330	0.00922
5818.81463	0.00924
5816.88595	0.00927
5814.95727	0.00929
5813.02860	0.00929
5811.09992	0.00930
5809.17125	0.00932
5807.24257	0.00934
5805.31390	0.00936
5803.38522	0.00938
5801.45654	0.00940
5799.52787	0.00943
5797.59919	0.00947
5795.67052	0.00950
5793.74184	0.00951
5791.81317	0.00952
5789.88449	0.00955
5787.95581	0.00957
5786.02714	0.00958
5784.09846	0.00957
5782.16979	0.00959
5780.24111	0.00962
5778.31244	0.00966
5776.38376	0.00969
5774.45508	0.00971
5772.52641	0.00973
5770.59773	0.00976
5768.66906	0.00978
5766.74038	0.00978
5764.81171	0.00979
5762.88303	0.00982
5760.95435	0.00987
5759.02568	0.00990
5757.09700	0.00990
5755.16833	0.00991
5753.23965	0.00993
5751.31098	0.00996
5749.38230	0.00999
5747.45362	0.01002
5745.52495	0.01005
5743.59627	0.01005
5741.66760	0.01004
5739.73892	0.01006
5737.81025	0.01009
5735.88157	0.01013
5733.95289	0.01016
5732.02422	0.01018
5730.09554	0.01019
5728.16687	0.01020
5726.23819	0.01020
5724.30952	0.01021
5722.38084	0.01024
5720.45216	0.01027
5718.52349	0.01029
5716.59481	0.01031
5714.66614	0.01034
5712.73746	0.01035
5710.80879	0.01035
5708.88011	0.01036
5706.95143	0.01039
5705.02276	0.01043
5703.09408	0.01047
5701.16541	0.01049
5699.23673	0.01052
5697.30806	0.01055
5695.37938	0.01058
5693.45070	0.01059
5691.52203	0.01060
5689.59335	0.01061
5687.66468	0.01063
5685.73600	0.01065
5683.80733	0.01068
5681.87865	0.01071
5679.94997	0.01074
5678.02130	0.01075
5676.09262	0.01076
5674.16395	0.01079
5672.23527	0.01083
5670.30660	0.01086
5668.37792	0.01088
5666.44924	0.01089
5664.52057	0.01092
5662.59189	0.01094
5660.66322	0.01094
5658.73454	0.01094
5656.80587	0.01096
5654.87719	0.01100
5652.94851	0.01105
5651.01984	0.01109
5649.09116	0.01112
5647.16249	0.01113
5645.23381	0.01113
5643.30514	0.01115
5641.37646	0.01117
5639.44778	0.01120
5637.51911	0.01124
5635.59043	0.01127
5633.66176	0.01131
5631.73308	0.01133
5629.80441	0.01135
5627.87573	0.01137
5625.94705	0.01140
5624.01838	0.01143
5622.08970	0.01146
5620.16103	0.01148
5618.23235	0.01150
5616.30368	0.01151
5614.37500	0.01153
5612.44632	0.01154
5610.51765	0.01155
5608.58897	0.01158
5606.66030	0.01163
5604.73162	0.01167
5602.80295	0.01169
5600.87427	0.01169
5598.94559	0.01171
5597.01692	0.01174
5595.08824	0.01178
5593.15957	0.01180
5591.23089	0.01182
5589.30222	0.01183
5587.37354	0.01186
5585.44486	0.01189
5583.51619	0.01190
5581.58751	0.01193
5579.65884	0.01197
5577.73016	0.01201
5575.80149	0.01202
5573.87281	0.01204
5571.94413	0.01207
5570.01546	0.01211
5568.08678	0.01215
5566.15811	0.01217
5564.22943	0.01218
5562.30076	0.01219
5560.37208	0.01222
5558.44340	0.01226
5556.51473	0.01229
5554.58605	0.01230
5552.65738	0.01231
5550.72870	0.01233
5548.80003	0.01235
5546.87135	0.01236
5544.94267	0.01238
5543.01400	0.01239
5541.08532	0.01242
5539.15665	0.01245
5537.22797	0.01246
5535.29930	0.01248
5533.37062	0.01251
5531.44194	0.01256
5529.51327	0.01260
5527.58459	0.01263
5525.65592	0.01263
5523.72724	0.01265
5521.79857	0.01270
5519.86989	0.01275
5517.94121	0.01277
5516.01254	0.01279
5514.08386	0.01281
5512.15519	0.01284
5510.22651	0.01284
5508.29784	0.01285
5506.36916	0.01287
5504.44048	0.01291
5502.51181	0.01296
5500.58313	0.01299
5498.65446	0.01302
5496.72578	0.01304
5494.79711	0.01306
5492.86843	0.01308
5490.93975	0.01309
5489.01108	0.01310
5487.08240	0.01313
5485.15373	0.01314
5483.22505	0.01317
5481.29638	0.01322
5479.36770	0.01326
5477.43902	0.01328
5475.51035	0.01331
5473.58167	0.01335
5471.65300	0.01339
5469.72432	0.01342
5467.79565	0.01344
5465.86697	0.01345
5463.93829	0.01345
5462.00962	0.01346
5460.08094	0.01348
5458.15227	0.01352
5456.22359	0.01356
5454.29492	0.01359
5452.36624	0.01362
5450.43756	0.01366
5448.50889	0.01368
5446.58021	0.01369
5444.65154	0.01372
5442.72286	0.01374
5440.79419	0.01376
5438.86551	0.01379
5436.93683	0.01382
5435.00816	0.01384
5433.07948	0.01387
5431.15081	0.01390
5429.22213	0.01394
5427.29346	0.01400
5425.36478	0.01404
5423.43610	0.01407
5421.50743	0.01409
5419.57875	0.01411
5417.65008	0.01412
5415.72140	0.01413
5413.79273	0.01415
5411.86405	0.01418
5409.93537	0.01421
5408.00670	0.01424
5406.07802	0.01425
5404.14935	0.01428
5402.22067	0.01431
5400.29200	0.01433
5398.36332	0.01435
5396.43464	0.01437
5394.50597	0.01441
5392.57729	0.01445
5390.64862	0.01449
5388.71994	0.01453
5386.79127	0.01457
5384.86259	0.01460
5382.93391	0.01463
5381.00524	0.01465
5379.07656	0.01465
5377.14789	0.01467
5375.21921	0.01471
5373.29054	0.01475
5371.36186	0.01478
5369.43318	0.01480
5367.50451	0.01481
5365.57583	0.01483
5363.64716	0.01487
5361.71848	0.01491
5359.78981	0.01493
5357.86113	0.01495
5355.93245	0.01496
5354.00378	0.01498
5352.07510	0.01501
5350.14643	0.01507
5348.21775	0.01512
5346.28908	0.01514
5344.36040	0.01515
5342.43172	0.01518
5340.50305	0.01520
5338.57437	0.01523
5336.64570	0.01528
5334.71702	0.01531
5332.78835	0.01533
5330.85967	0.01537
5328.93099	0.01542
5327.00232	0.01545
5325.07364	0.01548
5323.14497	0.01551
5321.21629	0.01551
5319.28762	0.01552
5317.35894	0.01554
5315.43026	0.01557
5313.50159	0.01562
5311.57291	0.01567
5309.64424	0.01571
5307.71556	0.01572
5305.78689	0.01574
5303.85821	0.01578
5301.92953	0.01581
5300.00086	0.01583
5298.07218	0.01585
5296.14351	0.01588
5294.21483	0.01591
5292.28616	0.01593
5290.35748	0.01597
5288.42880	0.01601
5286.50013	0.01604
5284.57145	0.01606
5282.64278	0.01606
5280.71410	0.01608
5278.78543	0.01612
5276.85675	0.01617
5274.92807	0.01620
5272.99940	0.01622
5271.07072	0.01626
5269.14205	0.01629
5267.21337	0.01630
5265.28470	0.01632
5263.35602	0.01634
5261.42734	0.01638
5259.49867	0.01642
5257.56999	0.01649
5255.64132	0.01654
5253.71264	0.01655
5251.78397	0.01655
5249.85529	0.01656
5247.92661	0.01659
5245.99794	0.01663
5244.06926	0.01666
5242.14059	0.01668
5240.21191	0.01671
5238.28324	0.01674
5236.35456	0.01678
5234.42588	0.01681
5232.49721	0.01684
5230.56853	0.01688
5228.63986	0.01691
5226.71118	0.01694
5224.78251	0.01698
5222.85383	0.01701
5220.92515	0.01705
5218.99648	0.01708
5217.06780	0.01709
5215.13913	0.01711
5213.21045	0.01714
5211.28178	0.01717
5209.35310	0.01719
5207.42442	0.01721
5205.49575	0.01724
5203.56707	0.01726
5201.63840	0.01730
5199.70972	0.01734
5197.78105	0.01737
5195.85237	0.01741
5193.92369	0.01745
5191.99502	0.01750
5190.06634	0.01753
5188.13767	0.01757
5186.20899	0.01762
5184.28032	0.01766
5182.35164	0.01767
5180.42296	0.01768
5178.49429	0.01772
5176.56561	0.01776
5174.63694	0.01779
5172.70826	0.01782
5170.77959	0.01785
5168.85091	0.01788
5166.92223	0.01790
5164.99356	0.01792
5163.06488	0.01795
5161.13621	0.01798
5159.20753	0.01801
5157.27886	0.01804
5155.35018	0.01807
5153.42150	0.01810
5151.49283	0.01813
5149.56415	0.01817
5147.63548	0.01820
5145.70680	0.01824
5143.77813	0.01826
5141.84945	0.01830
5139.92077	0.01834
5137.99210	0.01836
5136.06342	0.01839
5134.13475	0.01843
5132.20607	0.01847
5130.27740	0.01851
5128.34872	0.01856
5126.42004	0.01860
5124.49137	0.01861
5122.56269	0.01864
5120.63402	0.01866
5118.70534	0.01870
5116.77667	0.01873
5114.84799	0.01876
5112.91931	0.01877
5110.99064	0.01878
5109.06196	0.01880
5107.13329	0.01885
5105.20461	0.01891
5103.27594	0.01896
5101.34726	0.01900
5099.41858	0.01904
5097.48991	0.01908
5095.56123	0.01910
5093.63256	0.01912
5091.70388	0.01916
5089.77521	0.01920
5087.84653	0.01924
5085.91785	0.01928
5083.98918	0.01931
5082.06050	0.01933
5080.13183	0.01934
5078.20315	0.01936
5076.27448	0.01939
5074.34580	0.01942
5072.41712	0.01945
5070.48845	0.01949
5068.55977	0.01953
5066.63110	0.01956
5064.70242	0.01959
5062.77375	0.01961
5060.84507	0.01963
5058.91639	0.01967
5056.98772	0.01970
5055.05904	0.01972
5053.13037	0.01976
5051.20169	0.01982
5049.27302	0.01987
5047.34434	0.01990
5045.41566	0.01993
5043.48699	0.01996
5041.55831	0.02000
5039.62964	0.02004
5037.70096	0.02008
5035.77229	0.02010
5033.84361	0.02011
5031.91493	0.02012
5029.98626	0.02015
5028.05758	0.02019
5026.12891	0.02022
5024.20023	0.02026
5022.27156	0.02032
5020.34288	0.02037
5018.41420	0.02042
5016.48553	0.02044
5014.55685	0.02044
5012.62818	0.02046
5010.69950	0.02051
5008.77083	0.02057
5006.84215	0.02062
5004.91347	0.02065
5002.98480	0.02068
5001.05612	0.02074
4999.12745	0.02079
4997.19877	0.02080
4995.27010	0.02080
4993.34142	0.02081
4991.41274	0.02085
4989.48407	0.02090
4987.55539	0.02094
4985.62672	0.02097
4983.69804	0.02100
4981.76937	0.02105
4979.84069	0.02109
4977.91201	0.02112
4975.98334	0.02115
4974.05466	0.02118
4972.12599	0.02121
4970.19731	0.02124
4968.26864	0.02128
4966.33996	0.02131
4964.41128	0.02134
4962.48261	0.02138
4960.55393	0.02143
4958.62526	0.02147
4956.69658	0.02150
4954.76791	0.02154
4952.83923	0.02158
4950.91055	0.02163
4948.98188	0.02167
4947.05320	0.02170
4945.12453	0.02171
4943.19585	0.02174
4941.26718	0.02177
4939.33850	0.02181
4937.40982	0.02184
4935.48115	0.02187
4933.55247	0.02189
4931.62380	0.02193
4929.69512	0.02198
4927.76645	0.02202
4925.83777	0.02205
4923.90909	0.02209
4921.98042	0.02213
4920.05174	0.02215
4918.12307	0.02218
4916.19439	0.02224
4914.26572	0.02230
4912.33704	0.02234
4910.40836	0.02237
4908.47969	0.02238
4906.55101	0.02242
4904.62234	0.02247
4902.69366	0.02251
4900.76499	0.02254
4898.83631	0.02257
4896.90763	0.02259
4894.97896	0.02262
4893.05028	0.02265
4891.12161	0.02270
4889.19293	0.02275
4887.26426	0.02278
4885.33558	0.02280
4883.40690	0.02284
4881.47823	0.02288
4879.54955	0.02292
4877.62088	0.02295
4875.69220	0.02299
4873.76353	0.02302
4871.83485	0.02305
4869.90617	0.02309
4867.97750	0.02314
4866.04882	0.02319
4864.12015	0.02322
4862.19147	0.02324
4860.26280	0.02327
4858.33412	0.02332
4856.40544	0.02338
4854.47677	0.02344
4852.54809	0.02350
4850.61942	0.02352
4848.69074	0.02350
4846.76207	0.02352
4844.83339	0.02357
4842.90471	0.02361
4840.97604	0.02364
4839.04736	0.02368
4837.11869	0.02374
4835.19001	0.02381
4833.26134	0.02386
4831.33266	0.02390
4829.40398	0.02392
4827.47531	0.02394
4825.54663	0.02400
4823.61796	0.02407
4821.68928	0.02413
4819.76061	0.02416
4817.83193	0.02418
4815.90325	0.02420
4813.97458	0.02422
4812.04590	0.02425
4810.11723	0.02428
4808.18855	0.02433
4806.25988	0.02437
4804.33120	0.02440
4802.40252	0.02441
4800.47385	0.02444
4798.54517	0.02448
4796.61650	0.02452
4794.68782	0.02456
4792.75915	0.02462
4790.83047	0.02468
4788.90179	0.02472
4786.97312	0.02474
4785.04444	0.02478
4783.11577	0.02482
4781.18709	0.02486
4779.25842	0.02490
4777.32974	0.02494
4775.40106	0.02498
4773.47239	0.02502
4771.54371	0.02506
4769.61504	0.02509
4767.68636	0.02512
4765.75769	0.02516
4763.82901	0.02521
4761.90033	0.02526
4759.97166	0.02532
4758.04298	0.02536
4756.11431	0.02540
4754.18563	0.02543
4752.25696	0.02547
4750.32828	0.02551
4748.39960	0.02555
4746.47093	0.02559
4744.54225	0.02562
4742.61358	0.02566
4740.68490	0.02569
4738.75623	0.02574
4736.82755	0.02580
4734.89887	0.02585
4732.97020	0.02588
4731.04152	0.02590
4729.11285	0.02593
4727.18417	0.02597
4725.25550	0.02602
4723.32682	0.02606
4721.39814	0.02611
4719.46947	0.02615
4717.54079	0.02619
4715.61212	0.02625
4713.68344	0.02632
4711.75477	0.02637
4709.82609	0.02640
4707.89741	0.02644
4705.96874	0.02648
4704.04006	0.02652
4702.11139	0.02655
4700.18271	0.02660
4698.25404	0.02665
4696.32536	0.02670
4694.39668	0.02674
4692.46801	0.02677
4690.53933	0.02682
4688.61066	0.02687
4686.68198	0.02690
4684.75331	0.02692
4682.82463	0.02694
4680.89595	0.02699
4678.96728	0.02703
4677.03860	0.02708
4675.10993	0.02714
4673.18125	0.02719
4671.25258	0.02722
4669.32390	0.02726
4667.39522	0.02730
4665.46655	0.02733
4663.53787	0.02737
4661.60920	0.02744
4659.68052	0.02752
4657.75185	0.02757
4655.82317	0.02760
4653.89449	0.02764
4651.96582	0.02769
4650.03714	0.02776
4648.10847	0.02781
4646.17979	0.02784
4644.25112	0.02785
4642.32244	0.02786
4640.39376	0.02792
4638.46509	0.02800
4636.53641	0.02807
4634.60774	0.02810
4632.67906	0.02814
4630.75039	0.02818
4628.82171	0.02822
4626.89303	0.02827
4624.96436	0.02832
4623.03568	0.02836
4621.10701	0.02840
4619.17833	0.02844
4617.24966	0.02847
4615.32098	0.02851
4613.39230	0.02855
4611.46363	0.02858
4609.53495	0.02863
4607.60628	0.02868
4605.67760	0.02873
4603.74893	0.02877
4601.82025	0.02882
4599.89157	0.02887
4597.96290	0.02891
4596.03422	0.02896
4594.10555	0.02902
4592.17687	0.02907
4590.24820	0.02910
4588.31952	0.02912
4586.39084	0.02917
4584.46217	0.02923
4582.53349	0.02927
4580.60482	0.02933
4578.67614	0.02939
4576.74747	0.02945
4574.81879	0.02948
4572.89011	0.02953
4570.96144	0.02958
4569.03276	0.02964
4567.10409	0.02969
4565.17541	0.02975
4563.24674	0.02980
4561.31806	0.02983
4559.38938	0.02987
4557.46071	0.02993
4555.53203	0.02998
4553.60336	0.03003
4551.67468	0.03007
4549.74601	0.03011
4547.81733	0.03017
4545.88865	0.03023
4543.95998	0.03027
4542.03130	0.03031
4540.10263	0.03037
4538.17395	0.03042
4536.24528	0.03046
4534.31660	0.03050
4532.38792	0.03055
4530.45925	0.03063
4528.53057	0.03069
4526.60190	0.03072
4524.67322	0.03076
4522.74455	0.03084
4520.81587	0.03091
4518.88719	0.03096
4516.95852	0.03100
4515.02984	0.03103
4513.10117	0.03107
4511.17249	0.03110
4509.24382	0.03114
4507.31514	0.03119
4505.38646	0.03126
4503.45779	0.03131
4501.52911	0.03135
4499.60044	0.03139
4497.67176	0.03145
4495.74309	0.03153
4493.81441	0.03160
4491.88573	0.03165
4489.95706	0.03169
4488.02838	0.03174
4486.09971	0.03179
4484.17103	0.03184
4482.24236	0.03190
4480.31368	0.03196
4478.38500	0.03199
4476.45633	0.03201
4474.52765	0.03206
4472.59898	0.03211
4470.67030	0.03216
4468.74163	0.03223
4466.81295	0.03231
4464.88427	0.03237
4462.95560	0.03242
4461.02692	0.03247
4459.09825	0.03253
4457.16957	0.03259
4455.24090	0.03266
4453.31222	0.03273
4451.38354	0.03277
4449.45487	0.03280
4447.52619	0.03283
4445.59752	0.03288
4443.66884	0.03293
4441.74017	0.03298
4439.81149	0.03306
4437.88281	0.03315
4435.95414	0.03321
4434.02546	0.03326
4432.09679	0.03332
4430.16811	0.03338
4428.23944	0.03345
4426.31076	0.03351
4424.38208	0.03357
4422.45341	0.03363
4420.52473	0.03370
4418.59606	0.03376
4416.66738	0.03380
4414.73871	0.03383
4412.81003	0.03390
4410.88135	0.03398
4408.95268	0.03403
4407.02400	0.03408
4405.09533	0.03413
4403.16665	0.03418
4401.23798	0.03424
4399.30930	0.03431
4397.38062	0.03439
4395.45195	0.03445
4393.52327	0.03452
4391.59460	0.03456
4389.66592	0.03459
4387.73725	0.03462
4385.80857	0.03469
4383.87989	0.03478
4381.95122	0.03486
4380.02254	0.03492
4378.09387	0.03496
4376.16519	0.03500
4374.23652	0.03505
4372.30784	0.03511
4370.37916	0.03518
4368.45049	0.03525
4366.52181	0.03532
4364.59314	0.03539
4362.66446	0.03546
4360.73579	0.03552
4358.80711	0.03557
4356.87843	0.03563
4354.94976	0.03570
4353.02108	0.03578
4351.09241	0.03585
4349.16373	0.03588
4347.23506	0.03591
4345.30638	0.03597
4343.37770	0.03603
4341.44903	0.03610
4339.52035	0.03617
4337.59168	0.03624
4335.66300	0.03632
4333.73433	0.03640
4331.80565	0.03645
4329.87697	0.03651
4327.94830	0.03656
4326.01962	0.03661
4324.09095	0.03667
4322.16227	0.03674
4320.23360	0.03681
4318.30492	0.03686
4316.37624	0.03692
4314.44757	0.03701
4312.51889	0.03710
4310.59022	0.03716
4308.66154	0.03720
4306.73287	0.03725
4304.80419	0.03733
4302.87551	0.03740
4300.94684	0.03747
4299.01816	0.03754
4297.08949	0.03761
4295.16081	0.03768
4293.23214	0.03774
4291.30346	0.03779
4289.37478	0.03784
4287.44611	0.03792
4285.51743	0.03801
4283.58876	0.03808
4281.66008	0.03813
4279.73141	0.03819
4277.80273	0.03827
4275.87405	0.03835
4273.94538	0.03844
4272.01670	0.03852
4270.08803	0.03860
4268.15935	0.03867
4266.23068	0.03872
4264.30200	0.03875
4262.37332	0.03879
4260.44465	0.03886
4258.51597	0.03895
4256.58730	0.03902
4254.65862	0.03909
4252.72995	0.03915
4250.80127	0.03923
4248.87259	0.03931
4246.94392	0.03936
4245.01524	0.03939
4243.08657	0.03944
4241.15789	0.03952
4239.22922	0.03961
4237.30054	0.03969
4235.37186	0.03977
4233.44319	0.03986
4231.51451	0.03993
4229.58584	0.03999
4227.65716	0.04006
4225.72849	0.04014
4223.79981	0.04023
4221.87113	0.04032
4219.94246	0.04038
4218.01378	0.04043
4216.08511	0.04049
4214.15643	0.04056
4212.22776	0.04065
4210.29908	0.04072
4208.37040	0.04079
4206.44173	0.04084
4204.51305	0.04087
4202.58438	0.04095
4200.65570	0.04106
4198.72703	0.04116
4196.79835	0.04122
4194.86968	0.04129
4192.94100	0.04136
4191.01232	0.04143
4189.08365	0.04150
4187.15497	0.04158
4185.22630	0.04165
4183.29762	0.04170
4181.36895	0.04174
4179.44027	0.04180
4177.51159	0.04190
4175.58292	0.04200
4173.65424	0.04211
4171.72557	0.04220
4169.79689	0.04228
4167.86822	0.04234
4165.93954	0.04238
4164.01086	0.04245
4162.08219	0.04255
4160.15351	0.04264
4158.22484	0.04272
4156.29616	0.04280
4154.36749	0.04289
4152.43881	0.04299
4150.51013	0.04307
4148.58146	0.04314
4146.65278	0.04321
4144.72411	0.04328
4142.79543	0.04332
4140.86676	0.04338
4138.93808	0.04348
4137.00940	0.04359
4135.08073	0.04368
4133.15205	0.04376
4131.22338	0.04383
4129.29470	0.04389
4127.36603	0.04395
4125.43735	0.04402
4123.50867	0.04409
4121.58000	0.04415
4119.65132	0.04423
4117.72265	0.04430
4115.79397	0.04438
4113.86530	0.04448
4111.93662	0.04459
4110.00794	0.04469
4108.07927	0.04479
4106.15059	0.04487
4104.22192	0.04493
4102.29324	0.04499
4100.36457	0.04507
4098.43589	0.04515
4096.50721	0.04524
4094.57854	0.04532
4092.64986	0.04539
4090.72119	0.04546
4088.79251	0.04556
4086.86384	0.04568
4084.93516	0.04577
4083.00648	0.04581
4081.07781	0.04586
4079.14913	0.04595
4077.22046	0.04606
4075.29178	0.04616
4073.36311	0.04623
4071.43443	0.04630
4069.50575	0.04639
4067.57708	0.04646
4065.64840	0.04652
4063.71973	0.04660
4061.79105	0.04671
4059.86238	0.04683
4057.93370	0.04692
4056.00502	0.04697
4054.07635	0.04703
4052.14767	0.04712
4050.21900	0.04720
4048.29032	0.04728
4046.36165	0.04737
4044.43297	0.04747
4042.50429	0.04756
4040.57562	0.04764
4038.64694	0.04772
4036.71827	0.04782
4034.78959	0.04792
4032.86092	0.04801
4030.93224	0.04809
4029.00356	0.04817
4027.07489	0.04826
4025.14621	0.04835
4023.21754	0.04843
4021.28886	0.04851
4019.36019	0.04860
4017.43151	0.04869
4015.50283	0.04875
4013.57416	0.04881
4011.64548	0.04890
4009.71681	0.04900
4007.78813	0.04910
4005.85946	0.04921
4003.93078	0.04933
4002.00210	0.04944
4000.07343	0.04952
3998.14475	0.04956
3996.21608	0.04963
3994.28740	0.04974
3992.35873	0.04984
3990.43005	0.04992
3988.50137	0.05000
3986.57270	0.05010
3984.64402	0.05020
3982.71535	0.05028
3980.78667	0.05034
3978.85800	0.05041
3976.92932	0.05051
3975.00064	0.05061
3973.07197	0.05071
3971.14329	0.05079
3969.21462	0.05088
3967.28594	0.05098
3965.35727	0.05107
3963.42859	0.05115
3961.49991	0.05125
3959.57124	0.05135
3957.64256	0.05144
3955.71389	0.05152
3953.78521	0.05159
3951.85654	0.05165
3949.92786	0.05171
3947.99918	0.05181
3946.07051	0.05192
3944.14183	0.05204
3942.21316	0.05216
3940.28448	0.05227
3938.35581	0.05234
3936.42713	0.05240
3934.49845	0.05247
3932.56978	0.05256
3930.64110	0.05268
3928.71243	0.05281
3926.78375	0.05288
3924.85508	0.05296
3922.92640	0.05307
3920.99772	0.05315
3919.06905	0.05320
3917.14037	0.05327
3915.21170	0.05341
3913.28302	0.05356
3911.35435	0.05368
3909.42567	0.05376
3907.49699	0.05379
3905.56832	0.05379
3903.63964	0.05379
3901.71097	0.05385
3899.78229	0.05400
3897.85362	0.05420
3895.92494	0.05438
3893.99626	0.05446
3892.06759	0.05449
3890.13891	0.05457
3888.21024	0.05466
3886.28156	0.05471
3884.35289	0.05481
3882.42421	0.05491
3880.49553	0.05501
3878.56686	0.05516
3876.63818	0.05530
3874.70951	0.05538
3872.78083	0.05542
3870.85216	0.05544
3868.92348	0.05553
3866.99480	0.05566
3865.06613	0.05576
3863.13745	0.05587
3861.20878	0.05602
3859.28010	0.05615
3857.35143	0.05614
3855.42275	0.05597
3853.49407	0.05594
3851.56540	0.05623
3849.63672	0.05661
3847.70805	0.05684
3845.77937	0.05694
3843.85070	0.05696
3841.92202	0.05696
3839.99334	0.05696
3838.06467	0.05702
3836.13599	0.05717
3834.20732	0.05735
3832.27864	0.05750
3830.34997	0.05763
3828.42129	0.05775
3826.49261	0.05785
3824.56394	0.05789
3822.63526	0.05788
3820.70659	0.05794
3818.77791	0.05808
3816.84924	0.05818
3814.92056	0.05835
3812.99188	0.05861
3811.06321	0.05879
3809.13453	0.05880
3807.20586	0.05880
3805.27718	0.05888
3803.34851	0.05893
3801.41983	0.05899
3799.49115	0.05915
3797.56248	0.05931
3795.63380	0.05947
3793.70513	0.05965
3791.77645	0.05980
3789.84778	0.05989
3787.91910	0.05995
3785.99042	0.06001
3784.06175	0.06012
3782.13307	0.06022
3780.20440	0.06030
3778.27572	0.06040
3776.34705	0.06053
3774.41837	0.06062
3772.48969	0.06067
3770.56102	0.06072
3768.63234	0.06082
3766.70367	0.06094
3764.77499	0.06106
3762.84632	0.06119
3760.91764	0.06126
3758.98896	0.06132
3757.06029	0.06143
3755.13161	0.06148
3753.20294	0.06140
3751.27426	0.06132
3749.34559	0.06142
3747.41691	0.06153
3745.48823	0.06153
3743.55956	0.06166
3741.63088	0.06197
3739.70221	0.06213
3737.77353	0.06209
3735.84486	0.06210
3733.91618	0.06225
3731.98750	0.06250
3730.05883	0.06274
3728.13015	0.06288
3726.20148	0.06295
3724.27280	0.06304
3722.34413	0.06316
3720.41545	0.06327
3718.48677	0.06339
3716.55810	0.06346
3714.62942	0.06345
3712.70075	0.06341
3710.77207	0.06349
3708.84340	0.06369
3706.91472	0.06385
3704.98604	0.06390
3703.05737	0.06389
3701.12869	0.06394
3699.20002	0.06405
3697.27134	0.06416
3695.34267	0.06420
3693.41399	0.06418
3691.48531	0.06412
3689.55664	0.06409
3687.62796	0.06420
3685.69929	0.06439
3683.77061	0.06452
3681.84194	0.06454
3679.91326	0.06447
3677.98458	0.06431
3676.05591	0.06421
3674.12723	0.06430
3672.19856	0.06440
3670.26988	0.06443
3668.34121	0.06454
3666.41253	0.06472
3664.48385	0.06483
3662.55518	0.06488
3660.62650	0.06489
3658.69783	0.06484
3656.76915	0.06481
3654.84048	0.06485
3652.91180	0.06481
3650.98312	0.06463
3649.05445	0.06450
3647.12577	0.06463
3645.19710	0.06494
3643.26842	0.06522
3641.33975	0.06539
3639.41107	0.06550
3637.48239	0.06558
3635.55372	0.06564
3633.62504	0.06565
3631.69637	0.06555
3629.76769	0.06545
3627.83902	0.06556
3625.91034	0.06580
3623.98166	0.06594
3622.05299	0.06593
3620.12431	0.06589
3618.19564	0.06594
3616.26696	0.06605
3614.33829	0.06613
3612.40961	0.06617
3610.48093	0.06620
3608.55226	0.06629
3606.62358	0.06645
3604.69491	0.06660
3602.76623	0.06666
3600.83756	0.06671
3598.90888	0.06677
3596.98020	0.06683
3595.05153	0.06690
3593.12285	0.06698
3591.19418	0.06700
3589.26550	0.06698
3587.33683	0.06704
3585.40815	0.06721
3583.47947	0.06739
3581.55080	0.06748
3579.62212	0.06754
3577.69345	0.06762
3575.76477	0.06774
3573.83610	0.06785
3571.90742	0.06790
3569.97874	0.06786
3568.05007	0.06781
3566.12139	0.06789
3564.19272	0.06810
3562.26404	0.06828
3560.33537	0.06837
3558.40669	0.06844
3556.47801	0.06851
3554.54934	0.06859
3552.62066	0.06866
3550.69199	0.06871
3548.76331	0.06872
3546.83464	0.06872
3544.90596	0.06877
3542.97728	0.06887
3541.04861	0.06898
3539.11993	0.06905
3537.19126	0.06908
3535.26258	0.06910
3533.33391	0.06913
3531.40523	0.06916
3529.47655	0.06918
3527.54788	0.06922
3525.61920	0.06927
3523.69053	0.06932
3521.76185	0.06934
3519.83318	0.06936
3517.90450	0.06938
3515.97582	0.06942
3514.04715	0.06947
3512.11847	0.06953
3510.18980	0.06959
3508.26112	0.06961
3506.33245	0.06959
3504.40377	0.06957
3502.47509	0.06959
3500.54642	0.06962
3498.61774	0.06964
3496.68907	0.06964
3494.76039	0.06966
3492.83172	0.06970
3490.90304	0.06974
3488.97436	0.06976
3487.04569	0.06976
3485.11701	0.06974
3483.18834	0.06975
3481.25966	0.06980
3479.33099	0.06987
3477.40231	0.06994
3475.47363	0.07002
3473.54496	0.07012
3471.61628	0.07020
3469.68761	0.07028
3467.75893	0.07036
3465.83026	0.07046
3463.90158	0.07058
3461.97290	0.07071
3460.04423	0.07083
3458.11555	0.07092
3456.18688	0.07099
3454.25820	0.07107
3452.32953	0.07116
3450.40085	0.07124
3448.47217	0.07133
3446.54350	0.07143
3444.61482	0.07155
3442.68615	0.07167
3440.75747	0.07180
3438.82880	0.07194
3436.90012	0.07211
3434.97144	0.07230
3433.04277	0.07253
3431.11409	0.07274
3429.18542	0.07297
3427.25674	0.07323
3425.32807	0.07345
3423.39939	0.07360
3421.47071	0.07375
3419.54204	0.07394
3417.61336	0.07415
3415.68469	0.07436
3413.75601	0.07454
3411.82734	0.07467
3409.89866	0.07479
3407.96998	0.07493
3406.04131	0.07508
3404.11263	0.07522
3402.18396	0.07534
3400.25528	0.07547
3398.32661	0.07561
3396.39793	0.07578
3394.46925	0.07596
3392.54058	0.07611
3390.61190	0.07624
3388.68323	0.07639
3386.75455	0.07657
3384.82588	0.07675
3382.89720	0.07691
3380.96852	0.07705
3379.03985	0.07717
3377.11117	0.07729
3375.18250	0.07745
3373.25382	0.07761
3371.32515	0.07773
3369.39647	0.07786
3367.46779	0.07799
3365.53912	0.07810
3363.61044	0.07821
3361.68177	0.07834
3359.75309	0.07850
3357.82442	0.07865
3355.89574	0.07879
3353.96706	0.07892
3352.03839	0.07906
3350.10971	0.07921
3348.18104	0.07936
3346.25236	0.07950
3344.32369	0.07962
3342.39501	0.07975
3340.46633	0.07990
3338.53766	0.08006
3336.60898	0.08019
3334.68031	0.08033
3332.75163	0.08048
3330.82296	0.08064
3328.89428	0.08081
3326.96560	0.08097
3325.03693	0.08111
3323.10825	0.08123
3321.17958	0.08136
3319.25090	0.08150
3317.32223	0.08166
3315.39355	0.08184
3313.46487	0.08198
3311.53620	0.08211
3309.60752	0.08226
3307.67885	0.08243
3305.75017	0.08259
3303.82150	0.08275
3301.89282	0.08290
3299.96414	0.08303
3298.03547	0.08317
3296.10679	0.08333
3294.17812	0.08349
3292.24944	0.08364
3290.32077	0.08380
3288.39209	0.08396
3286.46341	0.08412
3284.53474	0.08427
3282.60606	0.08443
3280.67739	0.08460
3278.74871	0.08476
3276.82004	0.08493
3274.89136	0.08509
3272.96268	0.08524
3271.03401	0.08539
3269.10533	0.08554
3267.17666	0.08569
3265.24798	0.08583
3263.31931	0.08597
3261.39063	0.08614
3259.46195	0.08631
3257.53328	0.08648
3255.60460	0.08665
3253.67593	0.08683
3251.74725	0.08701
3249.81858	0.08718
3247.88990	0.08733
3245.96122	0.08747
3244.03255	0.08764
3242.10387	0.08782
3240.17520	0.08797
3238.24652	0.08811
3236.31785	0.08828
3234.38917	0.08847
3232.46049	0.08866
3230.53182	0.08884
3228.60314	0.08900
3226.67447	0.08915
3224.74579	0.08930
3222.81712	0.08944
3220.88844	0.08958
3218.95976	0.08975
3217.03109	0.08991
3215.10241	0.09006
3213.17374	0.09022
3211.24506	0.09038
3209.31639	0.09055
3207.38771	0.09070
3205.45903	0.09087
3203.53036	0.09105
3201.60168	0.09122
3199.67301	0.09140
3197.74433	0.09158
3195.81566	0.09177
3193.88698	0.09195
3191.95830	0.09212
3190.02963	0.09227
3188.10095	0.09246
3186.17228	0.09266
3184.24360	0.09282
3182.31493	0.09296
3180.38625	0.09312
3178.45757	0.09330
3176.52890	0.09348
3174.60022	0.09364
3172.67155	0.09381
3170.74287	0.09400
3168.81420	0.09419
3166.88552	0.09437
3164.95684	0.09452
3163.02817	0.09465
3161.09949	0.09480
3159.17082	0.09498
3157.24214	0.09519
3155.31347	0.09538
3153.38479	0.09552
3151.45611	0.09567
3149.52744	0.09585
3147.59876	0.09604
3145.67009	0.09622
3143.74141	0.09639
3141.81274	0.09655
3139.88406	0.09672
3137.95538	0.09690
3136.02671	0.09708
3134.09803	0.09721
3132.16936	0.09734
3130.24068	0.09752
3128.31201	0.09769
3126.38333	0.09784
3124.45465	0.09797
3122.52598	0.09811
3120.59730	0.09827
3118.66863	0.09844
3116.73995	0.09861
3114.81128	0.09880
3112.88260	0.09899
3110.95392	0.09916
3109.02525	0.09935
3107.09657	0.09952
3105.16790	0.09965
3103.23922	0.09980
3101.31055	0.09998
3099.38187	0.10015
3097.45319	0.10031
3095.52452	0.10044
3093.59584	0.10057
3091.66717	0.10076
3089.73849	0.10098
3087.80982	0.10116
3085.88114	0.10131
3083.95246	0.10144
3082.02379	0.10157
3080.09511	0.10169
3078.16644	0.10183
3076.23776	0.10202
3074.30909	0.10220
3072.38041	0.10236
3070.45173	0.10250
3068.52306	0.10264
3066.59438	0.10280
3064.66571	0.10297
3062.73703	0.10316
3060.80836	0.10335
3058.87968	0.10351
3056.95100	0.10366
3055.02233	0.10381
3053.09365	0.10397
3051.16498	0.10415
3049.23630	0.10432
3047.30763	0.10447
3045.37895	0.10460
3043.45027	0.10475
3041.52160	0.10489
3039.59292	0.10504
3037.66425	0.10522
3035.73557	0.10539
3033.80690	0.10552
3031.87822	0.10563
3029.94954	0.10578
3028.02087	0.10595
3026.09219	0.10612
3024.16352	0.10630
3022.23484	0.10648
3020.30617	0.10662
3018.37749	0.10674
3016.44881	0.10688
3014.52014	0.10704
3012.59146	0.10721
3010.66279	0.10741
3008.73411	0.10757
3006.80544	0.10767
3004.87676	0.10779
3002.94808	0.10797
3001.01941	0.10816
2999.09073	0.10832
2997.16206	0.10843
2995.23338	0.10855
2993.30471	0.10871
2991.37603	0.10887
2989.44735	0.10899
2987.51868	0.10908
2985.59000	0.10917
2983.66133	0.10925
2981.73265	0.10934
2979.80398	0.10943
2977.87530	0.10949
2975.94662	0.10953
2974.01795	0.10954
2972.08927	0.10953
2970.16060	0.10951
2968.23192	0.10946
2966.30325	0.10943
2964.37457	0.10948
2962.44589	0.10962
2960.51722	0.10978
2958.58854	0.10993
2956.65987	0.11010
2954.73119	0.11032
2952.80252	0.11057
2950.87384	0.11080
2948.94516	0.11096
2947.01649	0.11108
2945.08781	0.11120
2943.15914	0.11131
2941.23046	0.11136
2939.30179	0.11136
2937.37311	0.11135
2935.44443	0.11132
2933.51576	0.11126
2931.58708	0.11119
2929.65841	0.11116
2927.72973	0.11114
2925.80106	0.11113
2923.87238	0.11115
2921.94370	0.11119
2920.01503	0.11127
2918.08635	0.11143
2916.15768	0.11177
2914.22900	0.11226
2912.30033	0.11280
2910.37165	0.11329
2908.44297	0.11370
2906.51430	0.11404
2904.58562	0.11433
2902.65695	0.11460
2900.72827	0.11485
2898.79960	0.11506
2896.87092	0.11526
2894.94224	0.11549
2893.01357	0.11575
2891.08489	0.11600
2889.15622	0.11620
2887.22754	0.11638
2885.29887	0.11657
2883.37019	0.11674
2881.44151	0.11689
2879.51284	0.11703
2877.58416	0.11719
2875.65549	0.11734
2873.72681	0.11749
2871.79814	0.11764
2869.86946	0.11776
2867.94078	0.11786
2866.01211	0.11799
2864.08343	0.11812
2862.15476	0.11820
2860.22608	0.11824
2858.29741	0.11824
2856.36873	0.11822
2854.44005	0.11822
2852.51138	0.11822
2850.58270	0.11832
2848.65403	0.11863
2846.72535	0.11912
2844.79668	0.11968
2842.86800	0.12016
2840.93932	0.12052
2839.01065	0.12080
2837.08197	0.12107
2835.15330	0.12132
2833.22462	0.12155
2831.29595	0.12176
2829.36727	0.12194
2827.43859	0.12213
2825.50992	0.12232
2823.58124	0.12250
2821.65257	0.12264
2819.72389	0.12279
2817.79522	0.12296
2815.86654	0.12313
2813.93786	0.12329
2812.00919	0.12348
2810.08051	0.12368
2808.15184	0.12387
2806.22316	0.12406
2804.29449	0.12420
2802.36581	0.12431
2800.43713	0.12447
2798.50846	0.12467
2796.57978	0.12486
2794.65111	0.12501
2792.72243	0.12517
2790.79376	0.12533
2788.86508	0.12549
2786.93640	0.12566
2785.00773	0.12584
2783.07905	0.12598
2781.15038	0.12612
2779.22170	0.12629
2777.29303	0.12647
2775.36435	0.12663
2773.43567	0.12680
2771.50700	0.12697
2769.57832	0.12714
2767.64965	0.12728
2765.72097	0.12742
2763.79230	0.12757
2761.86362	0.12771
2759.93494	0.12786
2758.00627	0.12801
2756.07759	0.12816
2754.14892	0.12834
2752.22024	0.12851
2750.29157	0.12865
2748.36289	0.12881
2746.43421	0.12899
2744.50554	0.12913
2742.57686	0.12927
2740.64819	0.12942
2738.71951	0.12956
2736.79084	0.12969
2734.86216	0.12984
2732.93348	0.13000
2731.00481	0.13016
2729.07613	0.13029
2727.14746	0.13041
2725.21878	0.13056
2723.29011	0.13074
2721.36143	0.13090
2719.43275	0.13106
2717.50408	0.13121
2715.57540	0.13134
2713.64673	0.13146
2711.71805	0.13161
2709.78938	0.13177
2707.86070	0.13192
2705.93202	0.13205
2704.00335	0.13217
2702.07467	0.13233
2700.14600	0.13250
2698.21732	0.13265
2696.28865	0.13279
2694.35997	0.13294
2692.43129	0.13310
2690.50262	0.13326
2688.57394	0.13339
2686.64527	0.13353
2684.71659	0.13367
2682.78792	0.13379
2680.85924	0.13391
2678.93056	0.13406
2677.00189	0.13423
2675.07321	0.13439
2673.14454	0.13456
2671.21586	0.13472
2669.28719	0.13484
2667.35851	0.13495
2665.42983	0.13510
2663.50116	0.13527
2661.57248	0.13541
2659.64381	0.13555
2657.71513	0.13573
2655.78646	0.13592
2653.85778	0.13606
2651.92910	0.13619
2650.00043	0.13634
2648.07175	0.13650
2646.14308	0.13664
2644.21440	0.13680
2642.28573	0.13696
2640.35705	0.13712
2638.42837	0.13726
2636.49970	0.13741
2634.57102	0.13756
2632.64235	0.13772
2630.71367	0.13791
2628.78500	0.13812
2626.85632	0.13828
2624.92764	0.13842
2622.99897	0.13856
2621.07029	0.13869
2619.14162	0.13884
2617.21294	0.13901
2615.28427	0.13915
2613.35559	0.13928
2611.42691	0.13945
2609.49824	0.13963
2607.56956	0.13980
2605.64089	0.13994
2603.71221	0.14008
2601.78354	0.14022
2599.85486	0.14040
2597.92618	0.14056
2595.99751	0.14072
2594.06883	0.14086
2592.14016	0.14102
2590.21148	0.14118
2588.28281	0.14134
2586.35413	0.14147
2584.42545	0.14161
2582.49678	0.14178
2580.56810	0.14194
2578.63943	0.14208
2576.71075	0.14224
2574.78208	0.14243
2572.85340	0.14259
2570.92472	0.14271
2568.99605	0.14281
2567.06737	0.14290
2565.13870	0.14301
2563.21002	0.14318
2561.28135	0.14338
2559.35267	0.14353
2557.42399	0.14363
2555.49532	0.14376
2553.56664	0.14392
2551.63797	0.14409
2549.70929	0.14423
2547.78062	0.14437
2545.85194	0.14449
2543.92326	0.14463
2541.99459	0.14480
2540.06591	0.14499
2538.13724	0.14513
2536.20856	0.14525
2534.27989	0.14537
2532.35121	0.14551
2530.42253	0.14565
2528.49386	0.14583
2526.56518	0.14602
2524.63651	0.14619
2522.70783	0.14631
2520.77916	0.14643
2518.85048	0.14658
2516.92181	0.14673
2514.99313	0.14690
2513.06445	0.14708
2511.13578	0.14723
2509.20710	0.14736
2507.27843	0.14752
2505.34975	0.14770
2503.42108	0.14785
2501.49240	0.14801
2499.56372	0.14817
2497.63505	0.14833
2495.70637	0.14851
2493.77770	0.14870
2491.84902	0.14889
2489.92035	0.14906
2487.99167	0.14924
2486.06299	0.14944
2484.13432	0.14960
2482.20564	0.14970
2480.27697	0.14982
2478.34829	0.14997
2476.41962	0.15013
2474.49094	0.15029
2472.56226	0.15042
2470.63359	0.15055
2468.70491	0.15070
2466.77624	0.15085
2464.84756	0.15104
2462.91889	0.15123
2460.99021	0.15139
2459.06153	0.15153
2457.13286	0.15169
2455.20418	0.15185
2453.27551	0.15201
2451.34683	0.15215
2449.41816	0.15228
2447.48948	0.15242
2445.56080	0.15259
2443.63213	0.15277
2441.70345	0.15291
2439.77478	0.15303
2437.84610	0.15314
2435.91743	0.15328
2433.98875	0.15342
2432.06007	0.15357
2430.13140	0.15374
2428.20272	0.15394
2426.27405	0.15410
2424.34537	0.15423
2422.41670	0.15437
2420.48802	0.15451
2418.55934	0.15464
2416.63067	0.15477
2414.70199	0.15492
2412.77332	0.15508
2410.84464	0.15526
2408.91597	0.15542
2406.98729	0.15555
2405.05861	0.15567
2403.12994	0.15581
2401.20126	0.15595
2399.27259	0.15608
2397.34391	0.15620
2395.41524	0.15635
2393.48656	0.15650
2391.55788	0.15663
2389.62921	0.15676
2387.70053	0.15689
2385.77186	0.15704
2383.84318	0.15716
2381.91451	0.15724
2379.98583	0.15729
2378.05715	0.15730
2376.12848	0.15728
2374.19980	0.15723
2372.27113	0.15721
2370.34245	0.15719
2368.41378	0.15717
2366.48510	0.15715
2364.55642	0.15719
2362.62775	0.15727
2360.69907	0.15736
2358.77040	0.15744
2356.84172	0.15748
2354.91305	0.15748
2352.98437	0.15742
2351.05569	0.15717
2349.12702	0.15653
2347.19834	0.15539
2345.26967	0.15396
2343.34099	0.15280
2341.41232	0.15263
2339.48364	0.15393
2337.55496	0.15624
2335.62629	0.15832
2333.69761	0.15949
2331.76894	0.15998
2329.84026	0.16027
2327.91159	0.16054
2325.98291	0.16080
2324.05423	0.16104
2322.12556	0.16128
2320.19688	0.16150
2318.26821	0.16170
2316.33953	0.16192
2314.41086	0.16217
2312.48218	0.16240
2310.55350	0.16259
2308.62483	0.16276
2306.69615	0.16291
2304.76748	0.16306
2302.83880	0.16321
2300.91013	0.16336
2298.98145	0.16352
2297.05277	0.16370
2295.12410	0.16388
2293.19542	0.16405
2291.26675	0.16420
2289.33807	0.16433
2287.40940	0.16446
2285.48072	0.16463
2283.55204	0.16478
2281.62337	0.16490
2279.69469	0.16500
2277.76602	0.16514
2275.83734	0.16530
2273.90867	0.16545
2271.97999	0.16561
2270.05131	0.16579
2268.12264	0.16599
2266.19396	0.16617
2264.26529	0.16631
2262.33661	0.16645
2260.40794	0.16660
2258.47926	0.16675
2256.55058	0.16688
2254.62191	0.16703
2252.69323	0.16721
2250.76456	0.16741
2248.83588	0.16760
2246.90721	0.16778
2244.97853	0.16794
2243.04985	0.16808
2241.12118	0.16818
2239.19250	0.16831
2237.26383	0.16851
2235.33515	0.16874
2233.40648	0.16894
2231.47780	0.16909
2229.54912	0.16921
2227.62045	0.16932
2225.69177	0.16945
2223.76310	0.16959
2221.83442	0.16977
2219.90575	0.16995
2217.97707	0.17014
2216.04839	0.17028
2214.11972	0.17037
2212.19104	0.17046
2210.26237	0.17060
2208.33369	0.17075
2206.40502	0.17092
2204.47634	0.17108
2202.54766	0.17123
2200.61899	0.17137
2198.69031	0.17152
2196.76164	0.17165
2194.83296	0.17176
2192.90429	0.17189
2190.97561	0.17206
2189.04693	0.17222
2187.11826	0.17236
2185.18958	0.17249
2183.26091	0.17262
2181.33223	0.17276
2179.40356	0.17290
2177.47488	0.17303
2175.54620	0.17316
2173.61753	0.17331
2171.68885	0.17347
2169.76018	0.17362
2167.83150	0.17379
2165.90283	0.17396
2163.97415	0.17408
2162.04547	0.17421
2160.11680	0.17436
2158.18812	0.17451
2156.25945	0.17466
2154.33077	0.17485
2152.40210	0.17503
2150.47342	0.17518
2148.54474	0.17528
2146.61607	0.17538
2144.68739	0.17549
2142.75872	0.17559
2140.83004	0.17569
2138.90137	0.17580
2136.97269	0.17595
2135.04401	0.17612
2133.11534	0.17628
2131.18666	0.17645
2129.25799	0.17663
2127.32931	0.17680
2125.40064	0.17695
2123.47196	0.17709
2121.54328	0.17724
2119.61461	0.17739
2117.68593	0.17754
2115.75726	0.17767
2113.82858	0.17782
2111.89991	0.17799
2109.97123	0.17813
2108.04255	0.17826
2106.11388	0.17838
2104.18520	0.17850
2102.25653	0.17863
2100.32785	0.17878
2098.39918	0.17896
2096.47050	0.17913
2094.54182	0.17927
2092.61315	0.17940
2090.68447	0.17955
2088.75580	0.17972
2086.82712	0.17988
2084.89845	0.17999
2082.96977	0.18008
2081.04109	0.18021
2079.11242	0.18036
2077.18374	0.18050
2075.25507	0.18064
2073.32639	0.18079
2071.39772	0.18093
2069.46904	0.18105
2067.54036	0.18116
2065.61169	0.18129
2063.68301	0.18146
2061.75434	0.18164
2059.82566	0.18179
2057.89699	0.18193
2055.96831	0.18208
2054.03963	0.18222
2052.11096	0.18233
2050.18228	0.18244
2048.25361	0.18258
2046.32493	0.18273
2044.39626	0.18288
2042.46758	0.18300
2040.53890	0.18312
2038.61023	0.18328
2036.68155	0.18344
2034.75288	0.18360
2032.82420	0.18375
2030.89553	0.18389
2028.96685	0.18404
2027.03817	0.18417
2025.10950	0.18428
2023.18082	0.18440
2021.25215	0.18449
2019.32347	0.18458
2017.39480	0.18472
2015.46612	0.18491
2013.53744	0.18507
2011.60877	0.18521
2009.68009	0.18538
2007.75142	0.18553
2005.82274	0.18564
2003.89407	0.18573
2001.96539	0.18583
2000.03671	0.18596
1998.10804	0.18614
1996.17936	0.18628
1994.25069	0.18635
1992.32201	0.18641
1990.39334	0.18654
1988.46466	0.18668
1986.53598	0.18681
1984.60731	0.18695
1982.67863	0.18711
1980.74996	0.18727
1978.82128	0.18739
1976.89261	0.18747
1974.96393	0.18752
1973.03525	0.18761
1971.10658	0.18774
1969.17790	0.18784
1967.24923	0.18797
1965.32055	0.18815
1963.39188	0.18829
1961.46320	0.18837
1959.53452	0.18846
1957.60585	0.18855
1955.67717	0.18865
1953.74850	0.18877
1951.81982	0.18895
1949.89115	0.18911
1947.96247	0.18924
1946.03379	0.18935
1944.10512	0.18945
1942.17644	0.18956
1940.24777	0.18972
1938.31909	0.18991
1936.39042	0.19009
1934.46174	0.19023
1932.53306	0.19033
1930.60439	0.19042
1928.67571	0.19054
1926.74704	0.19068
1924.81836	0.19078
1922.88969	0.19088
1920.96101	0.19098
1919.03233	0.19105
1917.10366	0.19124
1915.17498	0.19155
1913.24631	0.19176
1911.31763	0.19183
1909.38896	0.19190
1907.46028	0.19202
1905.53160	0.19214
1903.60293	0.19226
1901.67425	0.19241
1899.74558	0.19252
1897.81690	0.19257
1895.88823	0.19264
1893.95955	0.19278
1892.03087	0.19290
1890.10220	0.19297
1888.17352	0.19309
1886.24485	0.19327
1884.31617	0.19346
1882.38750	0.19364
1880.45882	0.19378
1878.53014	0.19388
1876.60147	0.19397
1874.67279	0.19410
1872.74412	0.19417
1870.81544	0.19410
1868.88677	0.19407
1866.95809	0.19429
1865.02941	0.19463
1863.10074	0.19488
1861.17206	0.19502
1859.24339	0.19516
1857.31471	0.19533
1855.38604	0.19546
1853.45736	0.19552
1851.52868	0.19559
1849.60001	0.19567
1847.67133	0.19569
1845.74266	0.19562
1843.81398	0.19573
1841.88531	0.19614
1839.95663	0.19653
1838.02795	0.19671
1836.09928	0.19684
1834.17060	0.19696
1832.24193	0.19696
1830.31325	0.19691
1828.38458	0.19701
1826.45590	0.19723
1824.52722	0.19749
1822.59855	0.19778
1820.66987	0.19796
1818.74120	0.19803
1816.81252	0.19812
1814.88385	0.19826
1812.95517	0.19835
1811.02649	0.19840
1809.09782	0.19854
1807.16914	0.19872
1805.24047	0.19883
1803.31179	0.19880
1801.38312	0.19876
1799.45444	0.19886
1797.52576	0.19904
1795.59709	0.19907
1793.66841	0.19893
1791.73974	0.19894
1789.81106	0.19926
1787.88239	0.19957
1785.95371	0.19964
1784.02503	0.19965
1782.09636	0.19973
1780.16768	0.19985
1778.23901	0.19999
1776.31033	0.20001
1774.38166	0.19982
1772.45298	0.19963
1770.52430	0.19967
1768.59563	0.19989
1766.66695	0.20015
1764.73828	0.20027
1762.80960	0.20021
1760.88093	0.20023
1758.95225	0.20031
1757.02357	0.20030
1755.09490	0.20023
1753.16622	0.19999
1751.23755	0.19965
1749.30887	0.19957
1747.38020	0.19972
1745.45152	0.19981
1743.52284	0.19976
1741.59417	0.19962
1739.66549	0.19953
1737.73682	0.19943
1735.80814	0.19906
1733.87947	0.19879
1731.95079	0.19903
1730.02211	0.19942
1728.09344	0.19969
1726.16476	0.19987
1724.23609	0.19998
1722.30741	0.19996
1720.37874	0.19966
1718.45006	0.19931
1716.52138	0.19939
1714.59271	0.19989
1712.66403	0.20037
1710.73536	0.20060
1708.80668	0.20058
1706.87801	0.20047
1704.94933	0.20044
1703.02065	0.20022
1701.09198	0.19980
1699.16330	0.19971
1697.23463	0.19995
1695.30595	0.20027
1693.37728	0.20072
1691.44860	0.20099
1689.51992	0.20096
1687.59125	0.20071
1685.66257	0.20025
1683.73390	0.20007
1681.80522	0.20044
1679.87655	0.20090
1677.94787	0.20100
1676.01919	0.20088
1674.09052	0.20087
1672.16184	0.20086
1670.23317	0.20075
1668.30449	0.20087
1666.37582	0.20118
1664.44714	0.20128
1662.51846	0.20127
1660.58979	0.20140
1658.66111	0.20147
1656.73244	0.20111
1654.80376	0.20032
1652.87509	0.19997
1650.94641	0.20046
1649.01773	0.20087
1647.08906	0.20089
1645.16038	0.20108
1643.23171	0.20147
1641.30303	0.20168
1639.37436	0.20152
1637.44568	0.20113
1635.51700	0.20104
1633.58833	0.20145
1631.65965	0.20182
1629.73098	0.20181
1627.80230	0.20162
1625.87363	0.20136
1623.94495	0.20100
1622.01627	0.20073
1620.08760	0.20068
1618.15892	0.20081
1616.23025	0.20130
1614.30157	0.20207
1612.37290	0.20267
1610.44422	0.20300
1608.51554	0.20325
1606.58687	0.20350
1604.65819	0.20374
1602.72952	0.20394
1600.80084	0.20412
1598.87217	0.20430
1596.94349	0.20446
1595.01481	0.20461
1593.08614	0.20474
1591.15746	0.20490
1589.22879	0.20505
1587.30011	0.20519
1585.37144	0.20532
1583.44276	0.20545
1581.51408	0.20557
1579.58541	0.20555
1577.65673	0.20534
1575.72806	0.20537
1573.79938	0.20574
1571.87071	0.20590
1569.94203	0.20582
1568.01335	0.20594
1566.08468	0.20619
1564.15600	0.20628
1562.22733	0.20602
1560.29865	0.20550
1558.36998	0.20539
1556.44130	0.20592
1554.51262	0.20654
1552.58395	0.20692
1550.65527	0.20714
1548.72660	0.20722
1546.79792	0.20711
1544.86925	0.20678
1542.94057	0.20643
1541.01189	0.20629
1539.08322	0.20660
1537.15454	0.20714
1535.22587	0.20739
1533.29719	0.20747
1531.36852	0.20768
1529.43984	0.20779
1527.51116	0.20767
1525.58249	0.20754
1523.65381	0.20735
1521.72514	0.20714
1519.79646	0.20726
1517.86779	0.20759
1515.93911	0.20783
1514.01043	0.20797
1512.08176	0.20793
1510.15308	0.20761
1508.22441	0.20721
1506.29573	0.20729
1504.36706	0.20794
1502.43838	0.20842
1500.50970	0.20834
1498.58103	0.20804
1496.65235	0.20797
1494.72368	0.20810
1492.79500	0.20802
1490.86633	0.20764
1488.93765	0.20740
1487.00897	0.20746
1485.08030	0.20753
1483.15162	0.20743
1481.22295	0.20723
1479.29427	0.20691
1477.36560	0.20640
1475.43692	0.20575
1473.50824	0.20519
1471.57957	0.20498
1469.65089	0.20497
1467.72222	0.20474
1465.79354	0.20431
1463.86487	0.20407
1461.93619	0.20392
1460.00751	0.20339
1458.07884	0.20264
1456.15016	0.20244
1454.22149	0.20285
1452.29281	0.20322
1450.36414	0.20326
1448.43546	0.20320
1446.50678	0.20325
1444.57811	0.20337
1442.64943	0.20351
1440.72076	0.20356
1438.79208	0.20335
1436.86341	0.20313
1434.93473	0.20335
1433.00605	0.20372
1431.07738	0.20384
1429.14870	0.20389
1427.22003	0.20400
1425.29135	0.20403
1423.36268	0.20389
1421.43400	0.20357
1419.50532	0.20323
1417.57665	0.20328
1415.64797	0.20361
1413.71930	0.20380
1411.79062	0.20378
1409.86195	0.20377
1407.93327	0.20375
1406.00459	0.20364
1404.07592	0.20349
1402.14724	0.20337
1400.21857	0.20322
1398.28989	0.20308
1396.36122	0.20294
1394.43254	0.20287
1392.50386	0.20286
1390.57519	0.20271
1388.64651	0.20233
1386.71784	0.20193
1384.78916	0.20178
1382.86049	0.20183
1380.93181	0.20192
1379.00313	0.20189
1377.07446	0.20167
1375.14578	0.20141
1373.21711	0.20134
1371.28843	0.20143
1369.35976	0.20145
1367.43108	0.20137
1365.50240	0.20122
1363.57373	0.20102
1361.64505	0.20094
1359.71638	0.20100
1357.78770	0.20104
1355.85903	0.20107
1353.93035	0.20115
1352.00167	0.20121
1350.07300	0.20122
1348.14432	0.20123
1346.21565	0.20124
1344.28697	0.20123
1342.35830	0.20111
1340.42962	0.20090
1338.50094	0.20069
1336.57227	0.20059
1334.64359	0.20053
1332.71492	0.20038
1330.78624	0.20014
1328.85757	0.19988
1326.92889	0.19962
1325.00021	0.19934
1323.07154	0.19903
1321.14286	0.19874
1319.21419	0.19853
1317.28551	0.19831
1315.35684	0.19800
1313.42816	0.19767
1311.49948	0.19734
1309.57081	0.19697
1307.64213	0.19656
1305.71346	0.19618
1303.78478	0.19587
1301.85611	0.19555
1299.92743	0.19517
1297.99875	0.19480
1296.07008	0.19449
1294.14140	0.19418
1292.21273	0.19386
1290.28405	0.19346
1288.35538	0.19295
1286.42670	0.19243
1284.49802	0.19197
1282.56935	0.19152
1280.64067	0.19107
1278.71200	0.19062
1276.78332	0.19014
1274.85465	0.18960
1272.92597	0.18895
1270.99729	0.18812
1269.06862	0.18705
1267.13994	0.18585
1265.21127	0.18476
1263.28259	0.18387
1261.35392	0.18324
1259.42524	0.18287
1257.49656	0.18265
1255.56789	0.18238
1253.63921	0.18192
1251.71054	0.18121
1249.78186	0.18035
1247.85319	0.17945
1245.92451	0.17851
1243.99583	0.17750
1242.06716	0.17642
1240.13848	0.17532
1238.20981	0.17421
1236.28113	0.17300
1234.35246	0.17171
1232.42378	0.17049
1230.49510	0.16937
1228.56643	0.16822
1226.63775	0.16697
1224.70908	0.16575
1222.78040	0.16466
1220.85173	0.16362
1218.92305	0.16254
1216.99437	0.16145
1215.06570	0.16032
1213.13702	0.15916
1211.20835	0.15805
1209.27967	0.15700
1207.35100	0.15590
1205.42232	0.15479
1203.49364	0.15369
1201.56497	0.15262
1199.63629	0.15157
1197.70762	0.15052
1195.77894	0.14944
1193.85027	0.14836
1191.92159	0.14730
1189.99291	0.14628
1188.06424	0.14519
1186.13556	0.14403
1184.20689	0.14283
1182.27821	0.14164
1180.34954	0.14049
1178.42086	0.13935
1176.49218	0.13822
1174.56351	0.13705
1172.63483	0.13585
1170.70616	0.13465
1168.77748	0.13349
1166.84881	0.13238
1164.92013	0.13126
1162.99145	0.13009
1161.06278	0.12899
1159.13410	0.12796
1157.20543	0.12689
1155.27675	0.12581
1153.34808	0.12481
1151.41940	0.12382
1149.49072	0.12274
1147.56205	0.12162
1145.63337	0.12058
1143.70470	0.11957
1141.77602	0.11846
1139.84735	0.11724
1137.91867	0.11601
1135.98999	0.11475
1134.06132	0.11333
1132.13264	0.11171
1130.20397	0.10995
1128.27529	0.10798
1126.34662	0.10580
1124.41794	0.10352
1122.48926	0.10123
1120.56059	0.09901
1118.63191	0.09685
1116.70324	0.09470
1114.77456	0.09264
1112.84589	0.09078
1110.91721	0.08905
1108.98853	0.08735
1107.05986	0.08572
1105.13118	0.08414
1103.20251	0.08256
1101.27383	0.08104
1099.34516	0.07962
1097.41648	0.07815
1095.48780	0.07657
1093.55913	0.07492
1091.63045	0.07328
1089.70178	0.07168
1087.77310	0.07009
1085.84443	0.06854
1083.91575	0.06707
1081.98707	0.06570
1080.05840	0.06449
1078.12972	0.06344
1076.20105	0.06253
1074.27237	0.06172
1072.34370	0.06102
1070.41502	0.06052
1068.48634	0.06021
1066.55767	0.05998
1064.62899	0.05982
1062.70032	0.05986
1060.77164	0.06007
1058.84297	0.06037
1056.91429	0.06080
1054.98561	0.06137
1053.05694	0.06204
1051.12826	0.06277
1049.19959	0.06357
1047.27091	0.06444
1045.34224	0.06547
1043.41356	0.06666
1041.48488	0.06793
1039.55621	0.06926
1037.62753	0.07072
1035.69886	0.07231
1033.77018	0.07394
1031.84151	0.07563
1029.91283	0.07745
1027.98415	0.07945
1026.05548	0.08158
1024.12680	0.08382
1022.19813	0.08618
1020.26945	0.08868
1018.34078	0.09130
1016.41210	0.09406
1014.48342	0.09693
1012.55475	0.09987
1010.62607	0.10289
1008.69740	0.10597
1006.76872	0.10898
1004.84005	0.11183
1002.91137	0.11455
1000.98269	0.11717
999.05402	0.11965
997.12534	0.12191
995.19667	0.12398
993.26799	0.12582
991.33932	0.12745
989.41064	0.12900
987.48196	0.13034
985.55329	0.13141
983.62461	0.13232
981.69594	0.13311
979.76726	0.13371
977.83859	0.13411
975.90991	0.13440
973.98123	0.13459
972.05256	0.13467
970.12388	0.13469
968.19521	0.13473
966.26653	0.13474
964.33786	0.13467
962.40918	0.13455
960.48050	0.13444
958.55183	0.13436
956.62315	0.13420
954.69448	0.13391
952.76580	0.13361
950.83713	0.13340
948.90845	0.13320
946.97977	0.13298
945.05110	0.13273
943.12242	0.13241
941.19375	0.13205
939.26507	0.13167
937.33640	0.13134
935.40772	0.13099
933.47904	0.13060
931.55037	0.13018
929.62169	0.12974
927.69302	0.12931
925.76434	0.12889
923.83567	0.12849
921.90699	0.12807
919.97831	0.12760
918.04964	0.12709
916.12096	0.12655
914.19229	0.12596
912.26361	0.12533
910.33494	0.12473
908.40626	0.12418
906.47758	0.12364
904.54891	0.12308
902.62023	0.12252
900.69156	0.12202
898.76288	0.12160
896.83421	0.12121
894.90553	0.12082
892.97685	0.12041
891.04818	0.12002
889.11950	0.11963
887.19083	0.11925
885.26215	0.11896
883.33348	0.11876
881.40480	0.11857
879.47612	0.11842
877.54745	0.11833
875.61877	0.11825
873.69010	0.11816
871.76142	0.11807
869.83275	0.11801
867.90407	0.11800
865.97539	0.11798
864.04672	0.11792
862.11804	0.11782
860.18937	0.11770
858.26069	0.11756
856.33202	0.11728
854.40334	0.11685
852.47466	0.11639
850.54599	0.11589
848.61731	0.11528
846.68864	0.11462
844.75996	0.11403
842.83129	0.11350
840.90261	0.11282
838.97394	0.11203
837.04526	0.11122
835.11658	0.11032
833.18791	0.10926
831.25923	0.10813
829.33056	0.10695
827.40188	0.10570
825.47321	0.10445
823.54453	0.10336
821.61585	0.10248
819.68718	0.10175
817.75850	0.10109
815.82983	0.10047
813.90115	0.09993
811.97248	0.09951
810.04380	0.09921
808.11512	0.09899
806.18645	0.09885
804.25777	0.09884
802.32910	0.09889
800.40042	0.09879
798.47175	0.09843
796.54307	0.09801
794.61439	0.09769
792.68572	0.09752
790.75704	0.09754
788.82837	0.09768
786.89969	0.09781
784.97102	0.09788
783.04234	0.09796
781.11366	0.09809
779.18499	0.09822
777.25631	0.09828
775.32764	0.09822
773.39896	0.09812
771.47029	0.09811
769.54161	0.09813
767.61293	0.09801
765.68426	0.09774
763.75558	0.09746
761.82691	0.09725
759.89823	0.09705
757.96956	0.09675
756.04088	0.09632
754.11220	0.09576
752.18353	0.09515
750.25485	0.09461
748.32618	0.09408
746.39750	0.09342
744.46883	0.09267
742.54015	0.09190
740.61147	0.09117
738.68280	0.09066
736.75412	0.09048
734.82545	0.09050
732.89677	0.09059
730.96810	0.09067
729.03942	0.09072
727.11074	0.09076
725.18207	0.09086
723.25339	0.09100
721.32472	0.09117
719.39604	0.09137
717.46737	0.09163
715.53869	0.09195
713.61001	0.09229
711.68134	0.09263
709.75266	0.09291
707.82399	0.09306
705.89531	0.09302
703.96664	0.09280
702.03796	0.09246
700.10928	0.09205
698.18061	0.09156
696.25193	0.09102
694.32326	0.09051
692.39458	0.08999
690.46591	0.08941
688.53723	0.08888
686.60855	0.08839
684.67988	0.08790
682.75120	0.08742
680.82253	0.08689
678.89385	0.08628
676.96518	0.08566
675.03650	0.08508
673.10782	0.08446
671.17915	0.08366
669.25047	0.08272
667.32180	0.08189
665.39312	0.08112
663.46445	0.08022
661.53577	0.07934
659.60709	0.07853
657.67842	0.07771
655.74974	0.07690
653.82107	0.07611
651.89239	0.07530
649.96372	0.07452
648.03504	0.07378
646.10636	0.07300
644.17769	0.07208
642.24901	0.07111
640.32034	0.07020
638.39166	0.06930
636.46299	0.06836
634.53431	0.06724
632.60563	0.06565
630.67696	0.06330
628.74828	0.05990
626.81961	0.05572
624.89093	0.05153
622.96226	0.04810
621.03358	0.04599
619.10490	0.04488
617.17623	0.04405
615.24755	0.04320
613.31888	0.04224
611.39020	0.04125
609.46153	0.04066
607.53285	0.04072
605.60417	0.04119
603.67550	0.04180
601.74682	0.04259
599.81815	0.04350
597.88947	0.04422
595.96080	0.04469
594.03212	0.04503
592.10344	0.04531
590.17477	0.04550
588.24609	0.04552
586.31742	0.04531
584.38874	0.04499
582.46007	0.04463
580.53139	0.04425
578.60271	0.04379
576.67404	0.04330
574.74536	0.04284
572.81669	0.04233
570.88801	0.04176
568.95934	0.04123
567.03066	0.04080
565.10198	0.04037
563.17331	0.03995
561.24463	0.03968
559.31596	0.03949
557.38728	0.03928
555.45861	0.03905
553.52993	0.03888
551.60125	0.03875
549.67258	0.03859
547.74390	0.03837
545.81523	0.03812
543.88655	0.03796
541.95788	0.03789
540.02920	0.03772
538.10052	0.03748
536.17185	0.03730
534.24317	0.03715
532.31450	0.03698
530.38582	0.03681
528.45715	0.03654
526.52847	0.03618
524.59979	0.03579
522.67112	0.03537
520.74244	0.03491
518.81377	0.03434
516.88509	0.03360
514.95642	0.03296
513.02774	0.03261
511.09906	0.03245
509.17039	0.03231
507.24171	0.03203
505.31304	0.03154
503.38436	0.03098
501.45569	0.03051
499.52701	0.03004
497.59833	0.02952
495.66966	0.02888
493.74098	0.02819
491.81231	0.02754
489.88363	0.02689
487.95496	0.02614
486.02628	0.02531
484.09760	0.02461
482.16893	0.02406
480.24025	0.02349
478.31158	0.02286
476.38290	0.02214
474.45423	0.02141
472.52555	0.02084
470.59687	0.02035
468.66820	0.01977
466.73952	0.01918
464.81085	0.01872
462.88217	0.01835
460.95350	0.01813
459.02482	0.01803
457.09614	0.01785
455.16747	0.01760
453.23879	0.01746
451.31012	0.01750
449.38144	0.01752
447.45277	0.01736
445.52409	0.01720
443.59541	0.01714
441.66674	0.01702
439.73806	0.01677
437.80939	0.01648
435.88071	0.01622
433.95204	0.01593
432.02336	0.01553
430.09468	0.01506
428.16601	0.01464
426.23733	0.01428
424.30866	0.01386
422.37998	0.01338
420.45131	0.01298
418.52263	0.01259
416.59395	0.01214
414.66528	0.01169
412.73660	0.01124
410.80793	0.01068
408.87925	0.01014
406.95058	0.00969
405.02190	0.00926
403.09322	0.00878
401.16455	0.00830
399.23587	0.00785
397.30720	0.00734
395.37852	0.00680
393.44985	0.00635
391.52117	0.00603
389.59249	0.00577
387.66382	0.00545
385.73514	0.00506
383.80647	0.00476
381.87779	0.00456
379.94912	0.00429
378.02044	0.00392
376.09176	0.00355
374.16309	0.00317
372.23441	0.00277
370.30574	0.00245
368.37706	0.00228
