7496.76250	0.00127
7494.83382	0.00128
7492.90514	0.00128
7490.97647	0.00128
7489.04779	0.00128
7487.11912	0.00130
7485.19044	0.00131
7483.26177	0.00131
7481.33309	0.00131
7479.40441	0.00131
7477.47574	0.00130
7475.54706	0.00130
7473.61839	0.00131
7471.68971	0.00133
7469.76104	0.00134
7467.83236	0.00134
7465.90368	0.00134
7463.97501	0.00135
7462.04633	0.00136
7460.11766	0.00137
7458.18898	0.00136
7456.26031	0.00135
7454.33163	0.00136
7452.40295	0.00137
7450.47428	0.00137
7448.54560	0.00136
7446.61693	0.00136
7444.68825	0.00137
7442.75958	0.00139
7440.83090	0.00140
7438.90222	0.00140
7436.97355	0.00139
7435.04487	0.00139
7433.11620	0.00139
7431.18752	0.00139
7429.25885	0.00140
7427.33017	0.00140
7425.40149	0.00140
7423.47282	0.00141
7421.54414	0.00144
7419.61547	0.00144
7417.68679	0.00143
7415.75812	0.00142
7413.82944	0.00144
7411.90076	0.00145
7409.97209	0.00145
7408.04341	0.00145
7406.11474	0.00145
7404.18606	0.00145
7402.25739	0.00145
7400.32871	0.00145
7398.40003	0.00146
7396.47136	0.00146
7394.54268	0.00145
7392.61401	0.00145
7390.68533	0.00146
7388.75666	0.00147
7386.82798	0.00147
7384.89930	0.00147
7382.97063	0.00148
7381.04195	0.00149
7379.11328	0.00151
7377.18460	0.00153
7375.25593	0.00155
7373.32725	0.00155
7371.39857	0.00154
7369.46990	0.00152
7367.54122	0.00151
7365.61255	0.00151
7363.68387	0.00151
7361.75520	0.00151
7359.82652	0.00154
7357.89784	0.00156
7355.96917	0.00155
7354.04049	0.00153
7352.11182	0.00153
7350.18314	0.00155
7348.25447	0.00156
7346.32579	0.00156
7344.39711	0.00157
7342.46844	0.00158
7340.53976	0.00159
7338.61109	0.00160
7336.68241	0.00161
7334.75374	0.00161
7332.82506	0.00161
7330.89638	0.00160
7328.96771	0.00159
7327.03903	0.00161
7325.11036	0.00162
7323.18168	0.00163
7321.25301	0.00165
7319.32433	0.00165
7317.39565	0.00164
7315.46698	0.00163
7313.53830	0.00164
7311.60963	0.00165
7309.68095	0.00166
7307.75228	0.00167
7305.82360	0.00168
7303.89492	0.00167
7301.96625	0.00167
7300.03757	0.00167
7298.10890	0.00168
7296.18022	0.00169
7294.25155	0.00169
7292.32287	0.00168
7290.39419	0.00168
7288.46552	0.00168
7286.53684	0.00169
7284.60817	0.00171
7282.67949	0.00172
7280.75082	0.00172
7278.82214	0.00173
7276.89346	0.00174
7274.96479	0.00174
7273.03611	0.00172
7271.10744	0.00172
7269.17876	0.00173
7267.25009	0.00174
7265.32141	0.00174
7263.39273	0.00174
7261.46406	0.00175
7259.53538	0.00176
7257.60671	0.00177
7255.67803	0.00178
7253.74936	0.00178
7251.82068	0.00177
7249.89200	0.00177
7247.96333	0.00178
7246.03465	0.00180
7244.10598	0.00181
7242.17730	0.00181
7240.24863	0.00182
7238.31995	0.00183
7236.39127	0.00183
7234.46260	0.00182
7232.53392	0.00183
7230.60525	0.00186
7228.67657	0.00186
7226.74790	0.00185
7224.81922	0.00184
7222.89054	0.00184
7220.96187	0.00185
7219.03319	0.00185
7217.10452	0.00184
7215.17584	0.00185
7213.24717	0.00187
7211.31849	0.00189
7209.38981	0.00189
7207.46114	0.00189
7205.53246	0.00189
7203.60379	0.00189
7201.67511	0.00190
7199.74644	0.00190
7197.81776	0.00190
7195.88908	0.00190
7193.96041	0.00190
7192.03173	0.00192
7190.10306	0.00193
7188.17438	0.00194
7186.24571	0.00195
7184.31703	0.00196
7182.38835	0.00196
7180.45968	0.00196
7178.53100	0.00196
7176.60233	0.00195
7174.67365	0.00195
7172.74498	0.00195
7170.81630	0.00196
7168.88762	0.00197
7166.95895	0.00197
7165.03027	0.00197
7163.10160	0.00197
7161.17292	0.00197
7159.24425	0.00198
7157.31557	0.00200
7155.38689	0.00201
7153.45822	0.00202
7151.52954	0.00203
7149.60087	0.00203
7147.67219	0.00202
7145.74352	0.00203
7143.81484	0.00204
7141.88616	0.00205
7139.95749	0.00204
7138.02881	0.00204
7136.10014	0.00205
7134.17146	0.00206
7132.24279	0.00206
7130.31411	0.00208
7128.38543	0.00209
7126.45676	0.00208
7124.52808	0.00208
7122.59941	0.00208
7120.67073	0.00208
7118.74206	0.00209
7116.81338	0.00212
7114.88470	0.00213
7112.95603	0.00214
7111.02735	0.00213
7109.09868	0.00213
7107.17000	0.00213
7105.24133	0.00214
7103.31265	0.00214
7101.38397	0.00213
7099.45530	0.00213
7097.52662	0.00214
7095.59795	0.00215
7093.66927	0.00216
7091.74060	0.00216
7089.81192	0.00217
7087.88324	0.00218
7085.95457	0.00219
7084.02589	0.00219
7082.09722	0.00218
7080.16854	0.00219
7078.23987	0.00220
7076.31119	0.00220
7074.38251	0.00221
7072.45384	0.00221
7070.52516	0.00222
7068.59649	0.00223
7066.66781	0.00224
7064.73914	0.00224
7062.81046	0.00224
7060.88178	0.00225
7058.95311	0.00226
7057.02443	0.00227
7055.09576	0.00228
7053.16708	0.00227
7051.23841	0.00227
7049.30973	0.00226
7047.38105	0.00226
7045.45238	0.00226
7043.52370	0.00226
7041.59503	0.00225
7039.66635	0.00226
7037.73768	0.00227
7035.80900	0.00228
7033.88032	0.00230
7031.95165	0.00231
7030.02297	0.00232
7028.09430	0.00231
7026.16562	0.00231
7024.23695	0.00232
7022.30827	0.00234
7020.37959	0.00236
7018.45092	0.00237
7016.52224	0.00238
7014.59357	0.00237
7012.66489	0.00237
7010.73622	0.00237
7008.80754	0.00238
7006.87886	0.00239
7004.95019	0.00239
7003.02151	0.00240
7001.09284	0.00241
6999.16416	0.00242
6997.23549	0.00243
6995.30681	0.00243
6993.37813	0.00243
6991.44946	0.00243
6989.52078	0.00244
6987.59211	0.00245
6985.66343	0.00245
6983.73476	0.00245
6981.80608	0.00245
6979.87740	0.00245
6977.94873	0.00246
6976.02005	0.00248
6974.09138	0.00250
6972.16270	0.00252
6970.23403	0.00254
6968.30535	0.00252
6966.37667	0.00250
6964.44800	0.00250
6962.51932	0.00251
6960.59065	0.00253
6958.66197	0.00256
6956.73330	0.00257
6954.80462	0.00256
6952.87594	0.00256
6950.94727	0.00256
6949.01859	0.00253
6947.08992	0.00253
6945.16124	0.00255
6943.23257	0.00257
6941.30389	0.00259
6939.37521	0.00259
6937.44654	0.00259
6935.51786	0.00261
6933.58919	0.00261
6931.66051	0.00261
6929.73184	0.00260
6927.80316	0.00260
6925.87448	0.00262
6923.94581	0.00263
6922.01713	0.00264
6920.08846	0.00267
6918.15978	0.00268
6916.23111	0.00268
6914.30243	0.00268
6912.37375	0.00267
6910.44508	0.00268
6908.51640	0.00268
6906.58773	0.00269
6904.65905	0.00269
6902.73038	0.00269
6900.80170	0.00269
6898.87302	0.00270
6896.94435	0.00271
6895.01567	0.00272
6893.08700	0.00272
6891.15832	0.00273
6889.22965	0.00275
6887.30097	0.00276
6885.37229	0.00276
6883.44362	0.00277
6881.51494	0.00278
6879.58627	0.00279
6877.65759	0.00279
6875.72892	0.00280
6873.80024	0.00280
6871.87156	0.00281
6869.94289	0.00282
6868.01421	0.00281
6866.08554	0.00279
6864.15686	0.00279
6862.22819	0.00279
6860.29951	0.00280
6858.37083	0.00282
6856.44216	0.00283
6854.51348	0.00284
6852.58481	0.00285
6850.65613	0.00287
6848.72746	0.00287
6846.79878	0.00286
6844.87010	0.00287
6842.94143	0.00291
6841.01275	0.00293
6839.08408	0.00293
6837.15540	0.00293
6835.22673	0.00292
6833.29805	0.00292
6831.36937	0.00292
6829.44070	0.00293
6827.51202	0.00293
6825.58335	0.00294
6823.65467	0.00295
6821.72600	0.00294
6819.79732	0.00294
6817.86864	0.00295
6815.93997	0.00295
6814.01129	0.00296
6812.08262	0.00297
6810.15394	0.00299
6808.22527	0.00301
6806.29659	0.00302
6804.36791	0.00303
6802.43924	0.00303
6800.51056	0.00303
6798.58189	0.00301
6796.65321	0.00301
6794.72454	0.00303
6792.79586	0.00306
6790.86718	0.00307
6788.93851	0.00308
6787.00983	0.00309
6785.08116	0.00309
6783.15248	0.00309
6781.22381	0.00310
6779.29513	0.00311
6777.36645	0.00311
6775.43778	0.00311
6773.50910	0.00311
6771.58043	0.00312
6769.65175	0.00313
6767.72308	0.00314
6765.79440	0.00315
6763.86572	0.00315
6761.93705	0.00315
6760.00837	0.00315
6758.07970	0.00316
6756.15102	0.00316
6754.22235	0.00316
6752.29367	0.00317
6750.36499	0.00319
6748.43632	0.00321
6746.50764	0.00323
6744.57897	0.00324
6742.65029	0.00326
6740.72162	0.00328
6738.79294	0.00328
6736.86426	0.00327
6734.93559	0.00327
6733.00691	0.00328
6731.07824	0.00329
6729.14956	0.00330
6727.22089	0.00331
6725.29221	0.00332
6723.36353	0.00332
6721.43486	0.00332
6719.50618	0.00332
6717.57751	0.00333
6715.64883	0.00335
6713.72016	0.00336
6711.79148	0.00337
6709.86280	0.00338
6707.93413	0.00337
6706.00545	0.00337
6704.07678	0.00338
6702.14810	0.00338
6700.21943	0.00338
6698.29075	0.00340
6696.36207	0.00342
6694.43340	0.00344
6692.50472	0.00345
6690.57605	0.00347
6688.64737	0.00347
6686.71870	0.00348
6684.79002	0.00347
6682.86134	0.00346
6680.93267	0.00346
6679.00399	0.00348
6677.07532	0.00349
6675.14664	0.00349
6673.21797	0.00351
6671.28929	0.00353
6669.36061	0.00354
6667.43194	0.00354
6665.50326	0.00353
6663.57459	0.00354
6661.64591	0.00355
6659.71724	0.00356
6657.78856	0.00356
6655.85988	0.00356
6653.93121	0.00358
6652.00253	0.00360
6650.07386	0.00361
6648.14518	0.00359
6646.21651	0.00360
6644.28783	0.00362
6642.35915	0.00364
6640.43048	0.00365
6638.50180	0.00366
6636.57313	0.00366
6634.64445	0.00366
6632.71578	0.00366
6630.78710	0.00368
6628.85842	0.00370
6626.92975	0.00372
6625.00107	0.00372
6623.07240	0.00371
6621.14372	0.00372
6619.21505	0.00373
6617.28637	0.00374
6615.35769	0.00374
6613.42902	0.00375
6611.50034	0.00376
6609.57167	0.00378
6607.64299	0.00379
6605.71432	0.00379
6603.78564	0.00378
6601.85696	0.00377
6599.92829	0.00377
6597.99961	0.00380
6596.07094	0.00382
6594.14226	0.00385
6592.21359	0.00386
6590.28491	0.00386
6588.35623	0.00386
6586.42756	0.00388
6584.49888	0.00390
6582.57021	0.00391
6580.64153	0.00392
6578.71286	0.00392
6576.78418	0.00392
6574.85550	0.00393
6572.92683	0.00393
6570.99815	0.00393
6569.06948	0.00394
6567.14080	0.00395
6565.21213	0.00397
6563.28345	0.00399
6561.35477	0.00401
6559.42610	0.00401
6557.49742	0.00401
6555.56875	0.00401
6553.64007	0.00402
6551.71140	0.00404
6549.78272	0.00405
6547.85404	0.00407
6545.92537	0.00407
6543.99669	0.00407
6542.06802	0.00407
6540.13934	0.00408
6538.21067	0.00408
6536.28199	0.00409
6534.35331	0.00410
6532.42464	0.00411
6530.49596	0.00412
6528.56729	0.00414
6526.63861	0.00417
6524.70994	0.00418
6522.78126	0.00419
6520.85258	0.00420
6518.92391	0.00420
6516.99523	0.00420
6515.06656	0.00421
6513.13788	0.00422
6511.20921	0.00422
6509.28053	0.00421
6507.35185	0.00423
6505.42318	0.00426
6503.49450	0.00427
6501.56583	0.00428
6499.63715	0.00429
6497.70848	0.00431
6495.77980	0.00432
6493.85112	0.00431
6491.92245	0.00430
6489.99377	0.00431
6488.06510	0.00432
6486.13642	0.00433
6484.20775	0.00434
6482.27907	0.00435
6480.35039	0.00437
6478.42172	0.00437
6476.49304	0.00437
6474.56437	0.00438
6472.63569	0.00440
6470.70702	0.00441
6468.77834	0.00441
6466.84966	0.00442
6464.92099	0.00443
6462.99231	0.00444
6461.06364	0.00446
6459.13496	0.00447
6457.20629	0.00448
6455.27761	0.00448
6453.34893	0.00450
6451.42026	0.00451
6449.49158	0.00453
6447.56291	0.00455
6445.63423	0.00456
6443.70556	0.00457
6441.77688	0.00457
6439.84820	0.00457
6437.91953	0.00456
6435.99085	0.00457
6434.06218	0.00459
6432.13350	0.00461
6430.20483	0.00464
6428.27615	0.00466
6426.34747	0.00466
6424.41880	0.00465
6422.49012	0.00466
6420.56145	0.00468
6418.63277	0.00469
6416.70410	0.00470
6414.77542	0.00472
6412.84674	0.00472
6410.91807	0.00473
6408.98939	0.00474
6407.06072	0.00476
6405.13204	0.00478
6403.20337	0.00478
6401.27469	0.00478
6399.34601	0.00480
6397.41734	0.00481
6395.48866	0.00483
6393.55999	0.00484
6391.63131	0.00485
6389.70264	0.00485
6387.77396	0.00485
6385.84528	0.00487
6383.91661	0.00489
6381.98793	0.00491
6380.05926	0.00494
6378.13058	0.00495
6376.20191	0.00496
6374.27323	0.00496
6372.34455	0.00496
6370.41588	0.00496
6368.48720	0.00497
6366.55853	0.00498
6364.62985	0.00499
6362.70118	0.00500
6360.77250	0.00502
6358.84382	0.00503
6356.91515	0.00503
6354.98647	0.00504
6353.05780	0.00506
6351.12912	0.00508
6349.20045	0.00509
6347.27177	0.00510
6345.34309	0.00511
6343.41442	0.00512
6341.48574	0.00513
6339.55707	0.00514
6337.62839	0.00516
6335.69972	0.00518
6333.77104	0.00519
6331.84236	0.00520
6329.91369	0.00520
6327.98501	0.00521
6326.05634	0.00523
6324.12766	0.00526
6322.19899	0.00527
6320.27031	0.00527
6318.34163	0.00527
6316.41296	0.00527
6314.48428	0.00528
6312.55561	0.00529
6310.62693	0.00529
6308.69826	0.00531
6306.76958	0.00533
6304.84090	0.00535
6302.91223	0.00535
6300.98355	0.00536
6299.05488	0.00539
6297.12620	0.00541
6295.19753	0.00542
6293.26885	0.00541
6291.34017	0.00540
6289.41150	0.00540
6287.48282	0.00543
6285.55415	0.00547
6283.62547	0.00549
6281.69680	0.00551
6279.76812	0.00554
6277.83944	0.00555
6275.91077	0.00555
6273.98209	0.00555
6272.05342	0.00556
6270.12474	0.00557
6268.19607	0.00556
6266.26739	0.00557
6264.33871	0.00559
6262.41004	0.00562
6260.48136	0.00565
6258.55269	0.00566
6256.62401	0.00567
6254.69534	0.00569
6252.76666	0.00570
6250.83798	0.00571
6248.90931	0.00571
6246.98063	0.00571
6245.05196	0.00571
6243.12328	0.00573
6241.19461	0.00574
6239.26593	0.00575
6237.33725	0.00576
6235.40858	0.00578
6233.47990	0.00581
6231.55123	0.00584
6229.62255	0.00585
6227.69388	0.00585
6225.76520	0.00586
6223.83652	0.00587
6221.90785	0.00588
6219.97917	0.00588
6218.05050	0.00588
6216.12182	0.00588
6214.19315	0.00591
6212.26447	0.00594
6210.33579	0.00598
6208.40712	0.00602
6206.47844	0.00602
6204.54977	0.00601
6202.62109	0.00604
6200.69242	0.00607
6198.76374	0.00607
6196.83506	0.00606
6194.90639	0.00607
6192.97771	0.00609
6191.04904	0.00611
6189.12036	0.00613
6187.19169	0.00614
6185.26301	0.00615
6183.33433	0.00615
6181.40566	0.00616
6179.47698	0.00619
6177.54831	0.00620
6175.61963	0.00621
6173.69096	0.00622
6171.76228	0.00624
6169.83360	0.00626
6167.90493	0.00629
6165.97625	0.00630
6164.04758	0.00631
6162.11890	0.00632
6160.19023	0.00633
6158.26155	0.00636
6156.33287	0.00636
6154.40420	0.00636
6152.47552	0.00636
6150.54685	0.00639
6148.61817	0.00640
6146.68950	0.00641
6144.76082	0.00642
6142.83214	0.00642
6140.90347	0.00644
6138.97479	0.00645
6137.04612	0.00646
6135.11744	0.00647
6133.18877	0.00650
6131.26009	0.00653
6129.33141	0.00655
6127.40274	0.00656
6125.47406	0.00658
6123.54539	0.00660
6121.61671	0.00661
6119.68804	0.00662
6117.75936	0.00664
6115.83068	0.00667
6113.90201	0.00668
6111.97333	0.00667
6110.04466	0.00667
6108.11598	0.00669
6106.18731	0.00672
6104.25863	0.00673
6102.32995	0.00675
6100.40128	0.00679
6098.47260	0.00681
6096.54393	0.00682
6094.61525	0.00683
6092.68658	0.00683
6090.75790	0.00682
6088.82922	0.00683
6086.90055	0.00686
6084.97187	0.00688
6083.04320	0.00689
6081.11452	0.00690
6079.18585	0.00691
6077.25717	0.00692
6075.32849	0.00693
6073.39982	0.00694
6071.47114	0.00698
6069.54247	0.00701
6067.61379	0.00703
6065.68512	0.00705
6063.75644	0.00708
6061.82776	0.00711
6059.89909	0.00712
6057.97041	0.00713
6056.04174	0.00714
6054.11306	0.00715
6052.18439	0.00717
6050.25571	0.00718
6048.32703	0.00718
6046.39836	0.00719
6044.46968	0.00721
6042.54101	0.00721
6040.61233	0.00722
6038.68366	0.00724
6036.75498	0.00727
6034.82630	0.00730
6032.89763	0.00732
6030.96895	0.00731
6029.04028	0.00732
6027.11160	0.00735
6025.18293	0.00737
6023.25425	0.00740
6021.32557	0.00742
6019.39690	0.00745
6017.46822	0.00746
6015.53955	0.00745
6013.61087	0.00744
6011.68220	0.00745
6009.75352	0.00747
6007.82484	0.00750
6005.89617	0.00752
6003.96749	0.00753
6002.03882	0.00756
6000.11014	0.00759
5998.18147	0.00761
5996.25279	0.00762
5994.32411	0.00762
5992.39544	0.00763
5990.46676	0.00765
5988.53809	0.00768
5986.60941	0.00769
5984.68074	0.00771
5982.75206	0.00773
5980.82338	0.00776
5978.89471	0.00777
5976.96603	0.00778
5975.03736	0.00779
5973.10868	0.00780
5971.18001	0.00781
5969.25133	0.00783
5967.32265	0.00785
5965.39398	0.00787
5963.46530	0.00789
5961.53663	0.00790
5959.60795	0.00793
5957.67928	0.00795
5955.75060	0.00797
5953.82192	0.00799
5951.89325	0.00801
5949.96457	0.00803
5948.03590	0.00805
5946.10722	0.00806
5944.17855	0.00807
5942.24987	0.00808
5940.32119	0.00809
5938.39252	0.00811
5936.46384	0.00815
5934.53517	0.00817
5932.60649	0.00818
5930.67782	0.00819
5928.74914	0.00821
5926.82046	0.00823
5924.89179	0.00827
5922.96311	0.00830
5921.03444	0.00832
5919.10576	0.00832
5917.17709	0.00833
5915.24841	0.00835
5913.31973	0.00836
5911.39106	0.00837
5909.46238	0.00838
5907.53371	0.00840
5905.60503	0.00841
5903.67636	0.00843
5901.74768	0.00846
5899.81900	0.00847
5897.89033	0.00848
5895.96165	0.00851
5894.03298	0.00854
5892.10430	0.00855
5890.17563	0.00856
5888.24695	0.00860
5886.31827	0.00864
5884.38960	0.00867
5882.46092	0.00868
5880.53225	0.00869
5878.60357	0.00870
5876.67490	0.00870
5874.74622	0.00872
5872.81755	0.00874
5870.88887	0.00876
5868.96019	0.00878
5867.03152	0.00880
5865.10284	0.00882
5863.17417	0.00885
5861.24549	0.00887
5859.31682	0.00888
5857.38814	0.00889
5855.45946	0.00892
5853.53079	0.00893
5851.60211	0.00895
5849.67344	0.00897
5847.74476	0.00900
5845.81609	0.00902
5843.88741	0.00904
5841.95873	0.00905
5840.03006	0.00908
5838.10138	0.00910
5836.17271	0.00912
5834.24403	0.00913
5832.31536	0.00913
5830.38668	0.00913
5828.45800	0.00916
5826.52933	0.00918
5824.60065	0.00920
5822.67198	0.00922
5820.74330	0.00926
5818.81463	0.00930
5816.88595	0.00932
5814.95727	0.00933
5813.02860	0.00936
5811.09992	0.00938
5809.17125	0.00940
5807.24257	0.00941
5805.31390	0.00944
5803.38522	0.00947
5801.45654	0.00949
5799.52787	0.00949
5797.59919	0.00950
5795.67052	0.00953
5793.74184	0.00955
5791.81317	0.00956
5789.88449	0.00957
5787.95581	0.00958
5786.02714	0.00961
5784.09846	0.00964
5782.16979	0.00965
5780.24111	0.00965
5778.31244	0.00968
5776.38376	0.00972
5774.45508	0.00975
5772.52641	0.00978
5770.59773	0.00980
5768.66906	0.00982
5766.74038	0.00983
5764.81171	0.00983
5762.88303	0.00985
5760.95435	0.00987
5759.02568	0.00991
5757.09700	0.00995
5755.16833	0.00999
5753.23965	0.01001
5751.31098	0.01003
5749.38230	0.01005
5747.45362	0.01006
5745.52495	0.01007
5743.59627	0.01010
5741.66760	0.01013
5739.73892	0.01014
5737.81025	0.01014
5735.88157	0.01015
5733.95289	0.01018
5732.02422	0.01022
5730.09554	0.01026
5728.16687	0.01029
5726.23819	0.01030
5724.30952	0.01031
5722.38084	0.01032
5720.45216	0.01034
5718.52349	0.01037
5716.59481	0.01041
5714.66614	0.01044
5712.73746	0.01047
5710.80879	0.01047
5708.88011	0.01047
5706.95143	0.01049
5705.02276	0.01052
5703.09408	0.01054
5701.16541	0.01056
5699.23673	0.01059
5697.30806	0.01061
5695.37938	0.01063
5693.45070	0.01065
5691.52203	0.01065
5689.59335	0.01067
5687.66468	0.01071
5685.73600	0.01076
5683.80733	0.01079
5681.87865	0.01082
5679.94997	0.01084
5678.02130	0.01086
5676.09262	0.01087
5674.16395	0.01088
5672.23527	0.01089
5670.30660	0.01092
5668.37792	0.01096
5666.44924	0.01100
5664.52057	0.01101
5662.59189	0.01101
5660.66322	0.01102
5658.73454	0.01105
5656.80587	0.01109
5654.87719	0.01111
5652.94851	0.01112
5651.01984	0.01113
5649.09116	0.01116
5647.16249	0.01119
5645.23381	0.01122
5643.30514	0.01123
5641.37646	0.01124
5639.44778	0.01127
5637.51911	0.01131
5635.59043	0.01135
5633.66176	0.01139
5631.73308	0.01141
5629.80441	0.01142
5627.87573	0.01144
5625.94705	0.01147
5624.01838	0.01151
5622.08970	0.01153
5620.16103	0.01154
5618.23235	0.01155
5616.30368	0.01157
5614.37500	0.01159
5612.44632	0.01161
5610.51765	0.01162
5608.58897	0.01164
5606.66030	0.01166
5604.73162	0.01169
5602.80295	0.01172
5600.87427	0.01174
5598.94559	0.01176
5597.01692	0.01179
5595.08824	0.01184
5593.15957	0.01187
5591.23089	0.01189
5589.30222	0.01191
5587.37354	0.01192
5585.44486	0.01195
5583.51619	0.01198
5581.58751	0.01200
5579.65884	0.01203
5577.73016	0.01207
5575.80149	0.01210
5573.87281	0.01211
5571.94413	0.01211
5570.01546	0.01213
5568.08678	0.01215
5566.15811	0.01218
5564.22943	0.01220
5562.30076	0.01223
5560.37208	0.01227
5558.44340	0.01231
5556.51473	0.01235
5554.58605	0.01238
5552.65738	0.01240
5550.72870	0.01242
5548.80003	0.01245
5546.87135	0.01245
5544.94267	0.01246
5543.01400	0.01248
5541.08532	0.01252
5539.15665	0.01255
5537.22797	0.01258
5535.29930	0.01261
5533.37062	0.01264
5531.44194	0.01268
5529.51327	0.01269
5527.58459	0.01269
5525.65592	0.01270
5523.72724	0.01274
5521.79857	0.01277
5519.86989	0.01277
5517.94121	0.01279
5516.01254	0.01285
5514.08386	0.01290
5512.15519	0.01294
5510.22651	0.01296
5508.29784	0.01296
5506.36916	0.01297
5504.44048	0.01301
5502.51181	0.01305
5500.58313	0.01307
5498.65446	0.01310
5496.72578	0.01313
5494.79711	0.01316
5492.86843	0.01317
5490.93975	0.01319
5489.01108	0.01322
5487.08240	0.01324
5485.15373	0.01327
5483.22505	0.01329
5481.29638	0.01333
5479.36770	0.01335
5477.43902	0.01337
5475.51035	0.01339
5473.58167	0.01342
5471.65300	0.01343
5469.72432	0.01346
5467.79565	0.01349
5465.86697	0.01352
5463.93829	0.01354
5462.00962	0.01357
5460.08094	0.01359
5458.15227	0.01361
5456.22359	0.01363
5454.29492	0.01365
5452.36624	0.01368
5450.43756	0.01371
5448.50889	0.01374
5446.58021	0.01376
5444.65154	0.01377
5442.72286	0.01379
5440.79419	0.01384
5438.86551	0.01388
5436.93683	0.01389
5435.00816	0.01390
5433.07948	0.01393
5431.15081	0.01397
5429.22213	0.01400
5427.29346	0.01404
5425.36478	0.01407
5423.43610	0.01411
5421.50743	0.01413
5419.57875	0.01414
5417.65008	0.01418
5415.72140	0.01423
5413.79273	0.01425
5411.86405	0.01426
5409.93537	0.01426
5408.00670	0.01427
5406.07802	0.01431
5404.14935	0.01435
5402.22067	0.01438
5400.29200	0.01442
5398.36332	0.01445
5396.43464	0.01448
5394.50597	0.01451
5392.57729	0.01452
5390.64862	0.01454
5388.71994	0.01456
5386.79127	0.01459
5384.86259	0.01465
5382.93391	0.01470
5381.00524	0.01473
5379.07656	0.01474
5377.14789	0.01474
5375.21921	0.01476
5373.29054	0.01481
5371.36186	0.01487
5369.43318	0.01491
5367.50451	0.01493
5365.57583	0.01494
5363.64716	0.01497
5361.71848	0.01501
5359.78981	0.01506
5357.86113	0.01510
5355.93245	0.01512
5354.00378	0.01514
5352.07510	0.01516
5350.14643	0.01519
5348.21775	0.01521
5346.28908	0.01523
5344.36040	0.01525
5342.43172	0.01527
5340.50305	0.01531
5338.57437	0.01534
5336.64570	0.01538
5334.71702	0.01541
5332.78835	0.01543
5330.85967	0.01543
5328.93099	0.01544
5327.00232	0.01547
5325.07364	0.01551
5323.14497	0.01555
5321.21629	0.01559
5319.28762	0.01563
5317.35894	0.01566
5315.43026	0.01569
5313.50159	0.01571
5311.57291	0.01573
5309.64424	0.01575
5307.71556	0.01579
5305.78689	0.01584
5303.85821	0.01587
5301.92953	0.01589
5300.00086	0.01590
5298.07218	0.01593
5296.14351	0.01598
5294.21483	0.01600
5292.28616	0.01601
5290.35748	0.01604
5288.42880	0.01607
5286.50013	0.01610
5284.57145	0.01614
5282.64278	0.01619
5280.71410	0.01623
5278.78543	0.01625
5276.85675	0.01627
5274.92807	0.01631
5272.99940	0.01636
5271.07072	0.01638
5269.14205	0.01639
5267.21337	0.01642
5265.28470	0.01644
5263.35602	0.01646
5261.42734	0.01649
5259.49867	0.01654
5257.56999	0.01658
5255.64132	0.01660
5253.71264	0.01661
5251.78397	0.01664
5249.85529	0.01668
5247.92661	0.01672
5245.99794	0.01674
5244.06926	0.01676
5242.14059	0.01679
5240.21191	0.01684
5238.28324	0.01687
5236.35456	0.01689
5234.42588	0.01691
5232.49721	0.01694
5230.56853	0.01697
5228.63986	0.01700
5226.71118	0.01703
5224.78251	0.01705
5222.85383	0.01709
5220.92515	0.01713
5218.99648	0.01716
5217.06780	0.01719
5215.13913	0.01723
5213.21045	0.01726
5211.28178	0.01729
5209.35310	0.01730
5207.42442	0.01732
5205.49575	0.01736
5203.56707	0.01742
5201.63840	0.01745
5199.70972	0.01748
5197.78105	0.01750
5195.85237	0.01753
5193.92369	0.01757
5191.99502	0.01759
5190.06634	0.01762
5188.13767	0.01765
5186.20899	0.01770
5184.28032	0.01774
5182.35164	0.01776
5180.42296	0.01776
5178.49429	0.01779
5176.56561	0.01785
5174.63694	0.01791
5172.70826	0.01795
5170.77959	0.01798
5168.85091	0.01800
5166.92223	0.01804
5164.99356	0.01809
5163.06488	0.01811
5161.13621	0.01813
5159.20753	0.01815
5157.27886	0.01818
5155.35018	0.01820
5153.42150	0.01823
5151.49283	0.01825
5149.56415	0.01826
5147.63548	0.01830
5145.70680	0.01834
5143.77813	0.01838
5141.84945	0.01842
5139.92077	0.01847
5137.99210	0.01851
5136.06342	0.01855
5134.13475	0.01858
5132.20607	0.01861
5130.27740	0.01864
5128.34872	0.01866
5126.42004	0.01870
5124.49137	0.01874
5122.56269	0.01877
5120.63402	0.01879
5118.70534	0.01881
5116.77667	0.01882
5114.84799	0.01884
5112.91931	0.01889
5110.99064	0.01894
5109.06196	0.01898
5107.13329	0.01900
5105.20461	0.01901
5103.27594	0.01903
5101.34726	0.01908
5099.41858	0.01914
5097.48991	0.01918
5095.56123	0.01920
5093.63256	0.01923
5091.70388	0.01927
5089.77521	0.01931
5087.84653	0.01933
5085.91785	0.01934
5083.98918	0.01936
5082.06050	0.01941
5080.13183	0.01947
5078.20315	0.01952
5076.27448	0.01955
5074.34580	0.01956
5072.41712	0.01957
5070.48845	0.01960
5068.55977	0.01964
5066.63110	0.01967
5064.70242	0.01969
5062.77375	0.01971
5060.84507	0.01975
5058.91639	0.01981
5056.98772	0.01985
5055.05904	0.01989
5053.13037	0.01993
5051.20169	0.01997
5049.27302	0.02001
5047.34434	0.02005
5045.41566	0.02006
5043.48699	0.02006
5041.55831	0.02011
5039.62964	0.02017
5037.70096	0.02022
5035.77229	0.02024
5033.84361	0.02024
5031.91493	0.02026
5029.98626	0.02030
5028.05758	0.02036
5026.12891	0.02040
5024.20023	0.02043
5022.27156	0.02043
5020.34288	0.02046
5018.41420	0.02052
5016.48553	0.02057
5014.55685	0.02060
5012.62818	0.02063
5010.69950	0.02065
5008.77083	0.02069
5006.84215	0.02074
5004.91347	0.02078
5002.98480	0.02083
5001.05612	0.02087
4999.12745	0.02091
4997.19877	0.02093
4995.27010	0.02094
4993.34142	0.02097
4991.41274	0.02101
4989.48407	0.02107
4987.55539	0.02114
4985.62672	0.02119
4983.69804	0.02120
4981.76937	0.02121
4979.84069	0.02122
4977.91201	0.02124
4975.98334	0.02128
4974.05466	0.02132
4972.12599	0.02136
4970.19731	0.02140
4968.26864	0.02143
4966.33996	0.02145
4964.41128	0.02148
4962.48261	0.02150
4960.55393	0.02153
4958.62526	0.02157
4956.69658	0.02161
4954.76791	0.02165
4952.83923	0.02169
4950.91055	0.02173
4948.98188	0.02177
4947.05320	0.02181
4945.12453	0.02184
4943.19585	0.02188
4941.26718	0.02192
4939.33850	0.02197
4937.40982	0.02201
4935.48115	0.02205
4933.55247	0.02208
4931.62380	0.02210
4929.69512	0.02212
4927.76645	0.02215
4925.83777	0.02218
4923.90909	0.02223
4921.98042	0.02229
4920.05174	0.02233
4918.12307	0.02235
4916.19439	0.02237
4914.26572	0.02240
4912.33704	0.02244
4910.40836	0.02249
4908.47969	0.02254
4906.55101	0.02258
4904.62234	0.02262
4902.69366	0.02266
4900.76499	0.02269
4898.83631	0.02272
4896.90763	0.02274
4894.97896	0.02277
4893.05028	0.02280
4891.12161	0.02285
4889.19293	0.02289
4887.26426	0.02293
4885.33558	0.02296
4883.40690	0.02298
4881.47823	0.02301
4879.54955	0.02304
4877.62088	0.02306
4875.69220	0.02311
4873.76353	0.02316
4871.83485	0.02321
4869.90617	0.02326
4867.97750	0.02330
4866.04882	0.02333
4864.12015	0.02337
4862.19147	0.02340
4860.26280	0.02344
4858.33412	0.02348
4856.40544	0.02352
4854.47677	0.02355
4852.54809	0.02357
4850.61942	0.02360
4848.69074	0.02365
4846.76207	0.02369
4844.83339	0.02373
4842.90471	0.02375
4840.97604	0.02380
4839.04736	0.02387
4837.11869	0.02392
4835.19001	0.02396
4833.26134	0.02398
4831.33266	0.02402
4829.40398	0.02406
4827.47531	0.02410
4825.54663	0.02413
4823.61796	0.02417
4821.68928	0.02423
4819.76061	0.02428
4817.83193	0.02430
4815.90325	0.02431
4813.97458	0.02435
4812.04590	0.02439
4810.11723	0.02443
4808.18855	0.02446
4806.25988	0.02450
4804.33120	0.02453
4802.40252	0.02457
4800.47385	0.02461
4798.54517	0.02467
4796.61650	0.02472
4794.68782	0.02476
4792.75915	0.02479
4790.83047	0.02482
4788.90179	0.02486
4786.97312	0.02491
4785.04444	0.02494
4783.11577	0.02498
4781.18709	0.02502
4779.25842	0.02506
4777.32974	0.02512
4775.40106	0.02517
4773.47239	0.02519
4771.54371	0.02521
4769.61504	0.02525
4767.68636	0.02533
4765.75769	0.02539
4763.82901	0.02540
4761.90033	0.02542
4759.97166	0.02546
4758.04298	0.02550
4756.11431	0.02554
4754.18563	0.02558
4752.25696	0.02563
4750.32828	0.02568
4748.39960	0.02572
4746.47093	0.02573
4744.54225	0.02576
4742.61358	0.02582
4740.68490	0.02589
4738.75623	0.02595
4736.82755	0.02599
4734.89887	0.02603
4732.97020	0.02605
4731.04152	0.02607
4729.11285	0.02609
4727.18417	0.02613
4725.25550	0.02618
4723.32682	0.02622
4721.39814	0.02627
4719.46947	0.02633
4717.54079	0.02638
4715.61212	0.02641
4713.68344	0.02643
4711.75477	0.02644
4709.82609	0.02648
4707.89741	0.02654
4705.96874	0.02660
4704.04006	0.02665
4702.11139	0.02670
4700.18271	0.02674
4698.25404	0.02678
4696.32536	0.02685
4694.39668	0.02689
4692.46801	0.02693
4690.53933	0.02698
4688.61066	0.02702
4686.68198	0.02705
4684.75331	0.02708
4682.82463	0.02712
4680.89595	0.02717
4678.96728	0.02723
4677.03860	0.02726
4675.10993	0.02730
4673.18125	0.02735
4671.25258	0.02740
4669.32390	0.02744
4667.39522	0.02748
4665.46655	0.02753
4663.53787	0.02758
4661.60920	0.02763
4659.68052	0.02768
4657.75185	0.02773
4655.82317	0.02777
4653.89449	0.02778
4651.96582	0.02782
4650.03714	0.02785
4648.10847	0.02788
4646.17979	0.02794
4644.25112	0.02801
4642.32244	0.02805
4640.39376	0.02810
4638.46509	0.02816
4636.53641	0.02822
4634.60774	0.02827
4632.67906	0.02831
4630.75039	0.02834
4628.82171	0.02837
4626.89303	0.02839
4624.96436	0.02844
4623.03568	0.02850
4621.10701	0.02856
4619.17833	0.02861
4617.24966	0.02865
4615.32098	0.02870
4613.39230	0.02874
4611.46363	0.02877
4609.53495	0.02881
4607.60628	0.02889
4605.67760	0.02895
4603.74893	0.02898
4601.82025	0.02901
4599.89157	0.02907
4597.96290	0.02912
4596.03422	0.02916
4594.10555	0.02921
4592.17687	0.02926
4590.24820	0.02932
4588.31952	0.02935
4586.39084	0.02938
4584.46217	0.02943
4582.53349	0.02949
4580.60482	0.02955
4578.67614	0.02961
4576.74747	0.02967
4574.81879	0.02969
4572.89011	0.02972
4570.96144	0.02977
4569.03276	0.02983
4567.10409	0.02987
4565.17541	0.02991
4563.24674	0.02997
4561.31806	0.03002
4559.38938	0.03009
4557.46071	0.03015
4555.53203	0.03019
4553.60336	0.03022
4551.67468	0.03028
4549.74601	0.03033
4547.81733	0.03036
4545.88865	0.03040
4543.95998	0.03044
4542.03130	0.03050
4540.10263	0.03056
4538.17395	0.03061
4536.24528	0.03064
4534.31660	0.03070
4532.38792	0.03077
4530.45925	0.03083
4528.53057	0.03088
4526.60190	0.03092
4524.67322	0.03095
4522.74455	0.03098
4520.81587	0.03102
4518.88719	0.03107
4516.95852	0.03114
4515.02984	0.03121
4513.10117	0.03129
4511.17249	0.03135
4509.24382	0.03139
4507.31514	0.03142
4505.38646	0.03145
4503.45779	0.03148
4501.52911	0.03153
4499.60044	0.03161
4497.67176	0.03167
4495.74309	0.03170
4493.81441	0.03174
4491.88573	0.03181
4489.95706	0.03187
4488.02838	0.03193
4486.09971	0.03198
4484.17103	0.03204
4482.24236	0.03211
4480.31368	0.03217
4478.38500	0.03223
4476.45633	0.03228
4474.52765	0.03231
4472.59898	0.03234
4470.67030	0.03240
4468.74163	0.03245
4466.81295	0.03252
4464.88427	0.03262
4462.95560	0.03270
4461.02692	0.03275
4459.09825	0.03277
4457.16957	0.03279
4455.24090	0.03282
4453.31222	0.03288
4451.38354	0.03295
4449.45487	0.03302
4447.52619	0.03308
4445.59752	0.03314
4443.66884	0.03319
4441.74017	0.03323
4439.81149	0.03329
4437.88281	0.03335
4435.95414	0.03341
4434.02546	0.03348
4432.09679	0.03354
4430.16811	0.03359
4428.23944	0.03363
4426.31076	0.03368
4424.38208	0.03372
4422.45341	0.03377
4420.52473	0.03385
4418.59606	0.03393
4416.66738	0.03400
4414.73871	0.03407
4412.81003	0.03412
4410.88135	0.03416
4408.95268	0.03420
4407.02400	0.03425
4405.09533	0.03433
4403.16665	0.03440
4401.23798	0.03445
4399.30930	0.03450
4397.38062	0.03454
4395.45195	0.03459
4393.52327	0.03467
4391.59460	0.03475
4389.66592	0.03481
4387.73725	0.03487
4385.80857	0.03492
4383.87989	0.03497
4381.95122	0.03503
4380.02254	0.03511
4378.09387	0.03518
4376.16519	0.03524
4374.23652	0.03530
4372.30784	0.03537
4370.37916	0.03544
4368.45049	0.03549
4366.52181	0.03554
4364.59314	0.03559
4362.66446	0.03567
4360.73579	0.03573
4358.80711	0.03578
4356.87843	0.03582
4354.94976	0.03587
4353.02108	0.03593
4351.09241	0.03599
4349.16373	0.03607
4347.23506	0.03616
4345.30638	0.03623
4343.37770	0.03628
4341.44903	0.03635
4339.52035	0.03643
4337.59168	0.03649
4335.66300	0.03655
4333.73433	0.03661
4331.80565	0.03666
4329.87697	0.03673
4327.94830	0.03679
4326.01962	0.03682
4324.09095	0.03687
4322.16227	0.03696
4320.23360	0.03708
4318.30492	0.03718
4316.37624	0.03725
4314.44757	0.03731
4312.51889	0.03737
4310.59022	0.03740
4308.66154	0.03744
4306.73287	0.03750
4304.80419	0.03757
4302.87551	0.03764
4300.94684	0.03771
4299.01816	0.03776
4297.08949	0.03782
4295.16081	0.03790
4293.23214	0.03798
4291.30346	0.03803
4289.37478	0.03807
4287.44611	0.03815
4285.51743	0.03826
4283.58876	0.03836
4281.66008	0.03843
4279.73141	0.03847
4277.80273	0.03852
4275.87405	0.03861
4273.94538	0.03869
4272.01670	0.03875
4270.08803	0.03880
4268.15935	0.03886
4266.23068	0.03892
4264.30200	0.03899
4262.37332	0.03907
4260.44465	0.03915
4258.51597	0.03921
4256.58730	0.03926
4254.65862	0.03930
4252.72995	0.03936
4250.80127	0.03945
4248.87259	0.03954
4246.94392	0.03962
4245.01524	0.03969
4243.08657	0.03976
4241.15789	0.03984
4239.22922	0.03992
4237.30054	0.03999
4235.37186	0.04003
4233.44319	0.04005
4231.51451	0.04010
4229.58584	0.04018
4227.65716	0.04028
4225.72849	0.04038
4223.79981	0.04048
4221.87113	0.04055
4219.94246	0.04062
4218.01378	0.04069
4216.08511	0.04074
4214.15643	0.04081
4212.22776	0.04089
4210.29908	0.04097
4208.37040	0.04104
4206.44173	0.04110
4204.51305	0.04119
4202.58438	0.04127
4200.65570	0.04133
4198.72703	0.04137
4196.79835	0.04144
4194.86968	0.04154
4192.94100	0.04163
4191.01232	0.04171
4189.08365	0.04178
4187.15497	0.04185
4185.22630	0.04194
4183.29762	0.04203
4181.36895	0.04211
4179.44027	0.04216
4177.51159	0.04222
4175.58292	0.04230
4173.65424	0.04238
4171.72557	0.04245
4169.79689	0.04252
4167.86822	0.04258
4165.93954	0.04266
4164.01086	0.04276
4162.08219	0.04284
4160.15351	0.04292
4158.22484	0.04299
4156.29616	0.04306
4154.36749	0.04314
4152.43881	0.04321
4150.51013	0.04328
4148.58146	0.04334
4146.65278	0.04340
4144.72411	0.04349
4142.79543	0.04358
4140.86676	0.04367
4138.93808	0.04376
4137.00940	0.04383
4135.08073	0.04389
4133.15205	0.04400
4131.22338	0.04413
4129.29470	0.04422
4127.36603	0.04426
4125.43735	0.04431
4123.50867	0.04438
4121.58000	0.04447
4119.65132	0.04455
4117.72265	0.04461
4115.79397	0.04467
4113.86530	0.04476
4111.93662	0.04486
4110.00794	0.04494
4108.07927	0.04502
4106.15059	0.04511
4104.22192	0.04521
4102.29324	0.04530
4100.36457	0.04538
4098.43589	0.04546
4096.50721	0.04555
4094.57854	0.04564
4092.64986	0.04572
4090.72119	0.04580
4088.79251	0.04587
4086.86384	0.04597
4084.93516	0.04606
4083.00648	0.04615
4081.07781	0.04623
4079.14913	0.04629
4077.22046	0.04634
4075.29178	0.04641
4073.36311	0.04648
4071.43443	0.04656
4069.50575	0.04666
4067.57708	0.04676
4065.64840	0.04686
4063.71973	0.04696
4061.79105	0.04705
4059.86238	0.04711
4057.93370	0.04717
4056.00502	0.04724
4054.07635	0.04734
4052.14767	0.04744
4050.21900	0.04754
4048.29032	0.04765
4046.36165	0.04773
4044.43297	0.04780
4042.50429	0.04789
4040.57562	0.04799
4038.64694	0.04807
4036.71827	0.04815
4034.78959	0.04823
4032.86092	0.04831
4030.93224	0.04840
4029.00356	0.04851
4027.07489	0.04860
4025.14621	0.04869
4023.21754	0.04878
4021.28886	0.04885
4019.36019	0.04894
4017.43151	0.04905
4015.50283	0.04914
4013.57416	0.04921
4011.64548	0.04928
4009.71681	0.04937
4007.78813	0.04948
4005.85946	0.04956
4003.93078	0.04961
4002.00210	0.04969
4000.07343	0.04980
3998.14475	0.04989
3996.21608	0.04996
3994.28740	0.05004
3992.35873	0.05013
3990.43005	0.05021
3988.50137	0.05030
3986.57270	0.05039
3984.64402	0.05049
3982.71535	0.05059
3980.78667	0.05071
3978.85800	0.05082
3976.92932	0.05092
3975.00064	0.05100
3973.07197	0.05107
3971.14329	0.05114
3969.21462	0.05125
3967.28594	0.05136
3965.35727	0.05145
3963.42859	0.05152
3961.49991	0.05161
3959.57124	0.05171
3957.64256	0.05181
3955.71389	0.05190
3953.78521	0.05199
3951.85654	0.05207
3949.92786	0.05213
3947.99918	0.05221
3946.07051	0.05230
3944.14183	0.05239
3942.21316	0.05247
3940.28448	0.05258
3938.35581	0.05270
3936.42713	0.05279
3934.49845	0.05286
3932.56978	0.05293
3930.64110	0.05304
3928.71243	0.05315
3926.78375	0.05324
3924.85508	0.05330
3922.92640	0.05339
3920.99772	0.05349
3919.06905	0.05358
3917.14037	0.05367
3915.21170	0.05379
3913.28302	0.05392
3911.35435	0.05403
3909.42567	0.05410
3907.49699	0.05410
3905.56832	0.05404
3903.63964	0.05404
3901.71097	0.05414
3899.78229	0.05433
3897.85362	0.05458
3895.92494	0.05476
3893.99626	0.05482
3892.06759	0.05483
3890.13891	0.05492
3888.21024	0.05500
3886.28156	0.05505
3884.35289	0.05516
3882.42421	0.05527
3880.49553	0.05538
3878.56686	0.05556
3876.63818	0.05569
3874.70951	0.05574
3872.78083	0.05578
3870.85216	0.05583
3868.92348	0.05592
3866.99480	0.05605
3865.06613	0.05615
3863.13745	0.05624
3861.20878	0.05637
3859.28010	0.05648
3857.35143	0.05644
3855.42275	0.05626
3853.49407	0.05626
3851.56540	0.05660
3849.63672	0.05700
3847.70805	0.05721
3845.77937	0.05728
3843.85070	0.05732
3841.92202	0.05734
3839.99334	0.05735
3838.06467	0.05740
3836.13599	0.05756
3834.20732	0.05772
3832.27864	0.05785
3830.34997	0.05803
3828.42129	0.05819
3826.49261	0.05829
3824.56394	0.05831
3822.63526	0.05827
3820.70659	0.05831
3818.77791	0.05846
3816.84924	0.05862
3814.92056	0.05881
3812.99188	0.05904
3811.06321	0.05916
3809.13453	0.05918
3807.20586	0.05920
3805.27718	0.05927
3803.34851	0.05929
3801.41983	0.05934
3799.49115	0.05949
3797.56248	0.05968
3795.63380	0.05988
3793.70513	0.06008
3791.77645	0.06024
3789.84778	0.06036
3787.91910	0.06043
3785.99042	0.06049
3784.06175	0.06057
3782.13307	0.06066
3780.20440	0.06072
3778.27572	0.06082
3776.34705	0.06098
3774.41837	0.06110
3772.48969	0.06113
3770.56102	0.06115
3768.63234	0.06123
3766.70367	0.06133
3764.77499	0.06146
3762.84632	0.06160
3760.91764	0.06169
3758.98896	0.06175
3757.06029	0.06184
3755.13161	0.06186
3753.20294	0.06178
3751.27426	0.06174
3749.34559	0.06184
3747.41691	0.06192
3745.48823	0.06189
3743.55956	0.06207
3741.63088	0.06246
3739.70221	0.06268
3737.77353	0.06262
3735.84486	0.06255
3733.91618	0.06269
3731.98750	0.06296
3730.05883	0.06322
3728.13015	0.06334
3726.20148	0.06337
3724.27280	0.06344
3722.34413	0.06356
3720.41545	0.06369
3718.48677	0.06383
3716.55810	0.06394
3714.62942	0.06395
3712.70075	0.06390
3710.77207	0.06393
3708.84340	0.06407
3706.91472	0.06423
3704.98604	0.06434
3703.05737	0.06438
3701.12869	0.06444
3699.20002	0.06454
3697.27134	0.06464
3695.34267	0.06468
3693.41399	0.06462
3691.48531	0.06450
3689.55664	0.06449
3687.62796	0.06464
3685.69929	0.06487
3683.77061	0.06499
3681.84194	0.06498
3679.91326	0.06489
3677.98458	0.06475
3676.05591	0.06464
3674.12723	0.06469
3672.19856	0.06481
3670.26988	0.06487
3668.34121	0.06500
3666.41253	0.06517
3664.48385	0.06529
3662.55518	0.06538
3660.62650	0.06543
3658.69783	0.06538
3656.76915	0.06532
3654.84048	0.06532
3652.91180	0.06524
3650.98312	0.06502
3649.05445	0.06491
3647.12577	0.06506
3645.19710	0.06536
3643.26842	0.06561
3641.33975	0.06577
3639.41107	0.06588
3637.48239	0.06596
3635.55372	0.06601
3633.62504	0.06601
3631.69637	0.06593
3629.76769	0.06586
3627.83902	0.06599
3625.91034	0.06625
3623.98166	0.06641
3622.05299	0.06640
3620.12431	0.06637
3618.19564	0.06643
3616.26696	0.06655
3614.33829	0.06661
3612.40961	0.06662
3610.48093	0.06664
3608.55226	0.06671
3606.62358	0.06688
3604.69491	0.06707
3602.76623	0.06716
3600.83756	0.06720
3598.90888	0.06723
3596.98020	0.06727
3595.05153	0.06734
3593.12285	0.06743
3591.19418	0.06745
3589.26550	0.06739
3587.33683	0.06743
3585.40815	0.06763
3583.47947	0.06784
3581.55080	0.06796
3579.62212	0.06802
3577.69345	0.06811
3575.76477	0.06820
3573.83610	0.06829
3571.90742	0.06835
3569.97874	0.06832
3568.05007	0.06829
3566.12139	0.06837
3564.19272	0.06856
3562.26404	0.06872
3560.33537	0.06882
3558.40669	0.06890
3556.47801	0.06899
3554.54934	0.06904
3552.62066	0.06910
3550.69199	0.06918
3548.76331	0.06924
3546.83464	0.06924
3544.90596	0.06926
3542.97728	0.06933
3541.04861	0.06943
3539.11993	0.06950
3537.19126	0.06952
3535.26258	0.06954
3533.33391	0.06960
3531.40523	0.06968
3529.47655	0.06971
3527.54788	0.06971
3525.61920	0.06974
3523.69053	0.06979
3521.76185	0.06984
3519.83318	0.06987
3517.90450	0.06990
3515.97582	0.06994
3514.04715	0.06997
3512.11847	0.07001
3510.18980	0.07004
3508.26112	0.07005
3506.33245	0.07003
3504.40377	0.07002
3502.47509	0.07003
3500.54642	0.07007
3498.61774	0.07009
3496.68907	0.07013
3494.76039	0.07018
3492.83172	0.07022
3490.90304	0.07021
3488.97436	0.07017
3487.04569	0.07017
3485.11701	0.07021
3483.18834	0.07028
3481.25966	0.07034
3479.33099	0.07040
3477.40231	0.07045
3475.47363	0.07050
3473.54496	0.07057
3471.61628	0.07066
3469.68761	0.07076
3467.75893	0.07086
3465.83026	0.07095
3463.90158	0.07105
3461.97290	0.07116
3460.04423	0.07128
3458.11555	0.07138
3456.18688	0.07149
3454.25820	0.07159
3452.32953	0.07170
3450.40085	0.07179
3448.47217	0.07187
3446.54350	0.07194
3444.61482	0.07203
3442.68615	0.07213
3440.75747	0.07226
3438.82880	0.07241
3436.90012	0.07257
3434.97144	0.07276
3433.04277	0.07299
3431.11409	0.07324
3429.18542	0.07349
3427.25674	0.07372
3425.32807	0.07395
3423.39939	0.07414
3421.47071	0.07430
3419.54204	0.07447
3417.61336	0.07467
3415.68469	0.07483
3413.75601	0.07496
3411.82734	0.07513
3409.89866	0.07530
3407.96998	0.07544
3406.04131	0.07555
3404.11263	0.07571
3402.18396	0.07589
3400.25528	0.07605
3398.32661	0.07618
3396.39793	0.07630
3394.46925	0.07645
3392.54058	0.07661
3390.61190	0.07676
3388.68323	0.07694
3386.75455	0.07712
3384.82588	0.07727
3382.89720	0.07740
3380.96852	0.07755
3379.03985	0.07772
3377.11117	0.07788
3375.18250	0.07803
3373.25382	0.07815
3371.32515	0.07827
3369.39647	0.07840
3367.46779	0.07853
3365.53912	0.07866
3363.61044	0.07880
3361.68177	0.07893
3359.75309	0.07907
3357.82442	0.07920
3355.89574	0.07932
3353.96706	0.07945
3352.03839	0.07961
3350.10971	0.07979
3348.18104	0.07997
3346.25236	0.08013
3344.32369	0.08027
3342.39501	0.08040
3340.46633	0.08054
3338.53766	0.08069
3336.60898	0.08084
3334.68031	0.08096
3332.75163	0.08108
3330.82296	0.08122
3328.89428	0.08138
3326.96560	0.08152
3325.03693	0.08165
3323.10825	0.08179
3321.17958	0.08194
3319.25090	0.08209
3317.32223	0.08224
3315.39355	0.08239
3313.46487	0.08252
3311.53620	0.08265
3309.60752	0.08281
3307.67885	0.08300
3305.75017	0.08319
3303.82150	0.08336
3301.89282	0.08352
3299.96414	0.08367
3298.03547	0.08381
3296.10679	0.08397
3294.17812	0.08413
3292.24944	0.08426
3290.32077	0.08440
3288.39209	0.08455
3286.46341	0.08470
3284.53474	0.08485
3282.60606	0.08499
3280.67739	0.08514
3278.74871	0.08530
3276.82004	0.08546
3274.89136	0.08563
3272.96268	0.08584
3271.03401	0.08604
3269.10533	0.08618
3267.17666	0.08629
3265.24798	0.08645
3263.31931	0.08665
3261.39063	0.08680
3259.46195	0.08692
3257.53328	0.08708
3255.60460	0.08725
3253.67593	0.08742
3251.74725	0.08760
3249.81858	0.08777
3247.88990	0.08793
3245.96122	0.08808
3244.03255	0.08826
3242.10387	0.08843
3240.17520	0.08860
3238.24652	0.08876
3236.31785	0.08890
3234.38917	0.08906
3232.46049	0.08923
3230.53182	0.08940
3228.60314	0.08956
3226.67447	0.08974
3224.74579	0.08994
3222.81712	0.09013
3220.88844	0.09027
3218.95976	0.09040
3217.03109	0.09054
3215.10241	0.09070
3213.17374	0.09089
3211.24506	0.09106
3209.31639	0.09119
3207.38771	0.09133
3205.45903	0.09150
3203.53036	0.09172
3201.60168	0.09192
3199.67301	0.09211
3197.74433	0.09226
3195.81566	0.09237
3193.88698	0.09251
3191.95830	0.09271
3190.02963	0.09293
3188.10095	0.09312
3186.17228	0.09331
3184.24360	0.09348
3182.31493	0.09364
3180.38625	0.09380
3178.45757	0.09400
3176.52890	0.09420
3174.60022	0.09437
3172.67155	0.09451
3170.74287	0.09466
3168.81420	0.09482
3166.88552	0.09499
3164.95684	0.09515
3163.02817	0.09531
3161.09949	0.09550
3159.17082	0.09570
3157.24214	0.09588
3155.31347	0.09604
3153.38479	0.09623
3151.45611	0.09643
3149.52744	0.09659
3147.59876	0.09674
3145.67009	0.09691
3143.74141	0.09708
3141.81274	0.09722
3139.88406	0.09738
3137.95538	0.09754
3136.02671	0.09767
3134.09803	0.09784
3132.16936	0.09806
3130.24068	0.09827
3128.31201	0.09843
3126.38333	0.09858
3124.45465	0.09875
3122.52598	0.09893
3120.59730	0.09911
3118.66863	0.09928
3116.73995	0.09943
3114.81128	0.09956
3112.88260	0.09969
3110.95392	0.09985
3109.02525	0.10004
3107.09657	0.10023
3105.16790	0.10039
3103.23922	0.10054
3101.31055	0.10071
3099.38187	0.10087
3097.45319	0.10101
3095.52452	0.10117
3093.59584	0.10135
3091.66717	0.10152
3089.73849	0.10167
3087.80982	0.10182
3085.88114	0.10198
3083.95246	0.10213
3082.02379	0.10230
3080.09511	0.10249
3078.16644	0.10266
3076.23776	0.10283
3074.30909	0.10300
3072.38041	0.10318
3070.45173	0.10334
3068.52306	0.10348
3066.59438	0.10364
3064.66571	0.10381
3062.73703	0.10397
3060.80836	0.10414
3058.87968	0.10429
3056.95100	0.10442
3055.02233	0.10458
3053.09365	0.10475
3051.16498	0.10491
3049.23630	0.10507
3047.30763	0.10525
3045.37895	0.10544
3043.45027	0.10561
3041.52160	0.10575
3039.59292	0.10588
3037.66425	0.10600
3035.73557	0.10614
3033.80690	0.10630
3031.87822	0.10649
3029.94954	0.10668
3028.02087	0.10684
3026.09219	0.10698
3024.16352	0.10715
3022.23484	0.10732
3020.30617	0.10747
3018.37749	0.10757
3016.44881	0.10769
3014.52014	0.10784
3012.59146	0.10801
3010.66279	0.10818
3008.73411	0.10836
3006.80544	0.10853
3004.87676	0.10869
3002.94808	0.10885
3001.01941	0.10900
2999.09073	0.10912
2997.16206	0.10923
2995.23338	0.10934
2993.30471	0.10948
2991.37603	0.10966
2989.44735	0.10980
2987.51868	0.10989
2985.59000	0.10999
2983.66133	0.11014
2981.73265	0.11025
2979.80398	0.11029
2977.87530	0.11030
2975.94662	0.11032
2974.01795	0.11035
2972.08927	0.11038
2970.16060	0.11037
2968.23192	0.11035
2966.30325	0.11040
2964.37457	0.11045
2962.44589	0.11049
2960.51722	0.11062
2958.58854	0.11084
2956.65987	0.11107
2954.73119	0.11127
2952.80252	0.11145
2950.87384	0.11164
2948.94516	0.11180
2947.01649	0.11192
2945.08781	0.11202
2943.15914	0.11207
2941.23046	0.11212
2939.30179	0.11214
2937.37311	0.11212
2935.44443	0.11211
2933.51576	0.11209
2931.58708	0.11208
2929.65841	0.11208
2927.72973	0.11209
2925.80106	0.11207
2923.87238	0.11205
2921.94370	0.11205
2920.01503	0.11211
2918.08635	0.11229
2916.15768	0.11265
2914.22900	0.11317
2912.30033	0.11373
2910.37165	0.11421
2908.44297	0.11459
2906.51430	0.11493
2904.58562	0.11524
2902.65695	0.11549
2900.72827	0.11572
2898.79960	0.11597
2896.87092	0.11622
2894.94224	0.11646
2893.01357	0.11669
2891.08489	0.11691
2889.15622	0.11712
2887.22754	0.11732
2885.29887	0.11748
2883.37019	0.11761
2881.44151	0.11778
2879.51284	0.11793
2877.58416	0.11808
2875.65549	0.11825
2873.72681	0.11840
2871.79814	0.11854
2869.86946	0.11868
2867.94078	0.11881
2866.01211	0.11891
2864.08343	0.11900
2862.15476	0.11906
2860.22608	0.11912
2858.29741	0.11918
2856.36873	0.11920
2854.44005	0.11916
2852.51138	0.11912
2850.58270	0.11920
2848.65403	0.11951
2846.72535	0.12004
2844.79668	0.12062
2842.86800	0.12112
2840.93932	0.12151
2839.01065	0.12180
2837.08197	0.12206
2835.15330	0.12233
2833.22462	0.12257
2831.29595	0.12275
2829.36727	0.12289
2827.43859	0.12304
2825.50992	0.12320
2823.58124	0.12341
2821.65257	0.12363
2819.72389	0.12378
2817.79522	0.12392
2815.86654	0.12408
2813.93786	0.12427
2812.00919	0.12448
2810.08051	0.12470
2808.15184	0.12488
2806.22316	0.12505
2804.29449	0.12519
2802.36581	0.12531
2800.43713	0.12545
2798.50846	0.12564
2796.57978	0.12583
2794.65111	0.12600
2792.72243	0.12615
2790.79376	0.12632
2788.86508	0.12650
2786.93640	0.12665
2785.00773	0.12681
2783.07905	0.12698
2781.15038	0.12714
2779.22170	0.12728
2777.29303	0.12742
2775.36435	0.12757
2773.43567	0.12774
2771.50700	0.12791
2769.57832	0.12809
2767.64965	0.12827
2765.72097	0.12842
2763.79230	0.12860
2761.86362	0.12880
2759.93494	0.12899
2758.00627	0.12915
2756.07759	0.12929
2754.14892	0.12941
2752.22024	0.12954
2750.29157	0.12968
2748.36289	0.12981
2746.43421	0.12996
2744.50554	0.13011
2742.57686	0.13025
2740.64819	0.13040
2738.71951	0.13056
2736.79084	0.13071
2734.86216	0.13086
2732.93348	0.13102
2731.00481	0.13115
2729.07613	0.13129
2727.14746	0.13144
2725.21878	0.13159
2723.29011	0.13176
2721.36143	0.13195
2719.43275	0.13211
2717.50408	0.13223
2715.57540	0.13237
2713.64673	0.13252
2711.71805	0.13265
2709.78938	0.13282
2707.86070	0.13301
2705.93202	0.13317
2704.00335	0.13332
2702.07467	0.13347
2700.14600	0.13358
2698.21732	0.13370
2696.28865	0.13384
2694.35997	0.13397
2692.43129	0.13410
2690.50262	0.13422
2688.57394	0.13436
2686.64527	0.13452
2684.71659	0.13468
2682.78792	0.13484
2680.85924	0.13501
2678.93056	0.13518
2677.00189	0.13533
2675.07321	0.13550
2673.14454	0.13570
2671.21586	0.13584
2669.28719	0.13592
2667.35851	0.13600
2665.42983	0.13616
2663.50116	0.13635
2661.57248	0.13653
2659.64381	0.13669
2657.71513	0.13684
2655.78646	0.13700
2653.85778	0.13716
2651.92910	0.13730
2650.00043	0.13744
2648.07175	0.13759
2646.14308	0.13776
2644.21440	0.13795
2642.28573	0.13811
2640.35705	0.13824
2638.42837	0.13833
2636.49970	0.13846
2634.57102	0.13863
2632.64235	0.13880
2630.71367	0.13897
2628.78500	0.13913
2626.85632	0.13931
2624.92764	0.13952
2622.99897	0.13970
2621.07029	0.13984
2619.14162	0.13994
2617.21294	0.14004
2615.28427	0.14019
2613.35559	0.14037
2611.42691	0.14056
2609.49824	0.14073
2607.56956	0.14088
2605.64089	0.14104
2603.71221	0.14119
2601.78354	0.14134
2599.85486	0.14152
2597.92618	0.14170
2595.99751	0.14184
2594.06883	0.14197
2592.14016	0.14214
2590.21148	0.14230
2588.28281	0.14244
2586.35413	0.14259
2584.42545	0.14277
2582.49678	0.14294
2580.56810	0.14310
2578.63943	0.14327
2576.71075	0.14344
2574.78208	0.14360
2572.85340	0.14373
2570.92472	0.14386
2568.99605	0.14399
2567.06737	0.14413
2565.13870	0.14425
2563.21002	0.14436
2561.28135	0.14449
2559.35267	0.14465
2557.42399	0.14481
2555.49532	0.14494
2553.56664	0.14511
2551.63797	0.14527
2549.70929	0.14539
2547.78062	0.14553
2545.85194	0.14570
2543.92326	0.14587
2541.99459	0.14603
2540.06591	0.14618
2538.13724	0.14630
2536.20856	0.14642
2534.27989	0.14657
2532.35121	0.14671
2530.42253	0.14684
2528.49386	0.14701
2526.56518	0.14718
2524.63651	0.14733
2522.70783	0.14748
2520.77916	0.14763
2518.85048	0.14776
2516.92181	0.14787
2514.99313	0.14802
2513.06445	0.14821
2511.13578	0.14842
2509.20710	0.14861
2507.27843	0.14878
2505.34975	0.14895
2503.42108	0.14911
2501.49240	0.14927
2499.56372	0.14944
2497.63505	0.14960
2495.70637	0.14978
2493.77770	0.14995
2491.84902	0.15009
2489.92035	0.15020
2487.99167	0.15033
2486.06299	0.15050
2484.13432	0.15069
2482.20564	0.15086
2480.27697	0.15102
2478.34829	0.15118
2476.41962	0.15138
2474.49094	0.15158
2472.56226	0.15174
2470.63359	0.15183
2468.70491	0.15190
2466.77624	0.15201
2464.84756	0.15217
2462.91889	0.15235
2460.99021	0.15256
2459.06153	0.15278
2457.13286	0.15294
2455.20418	0.15305
2453.27551	0.15319
2451.34683	0.15339
2449.41816	0.15358
2447.48948	0.15370
2445.56080	0.15379
2443.63213	0.15390
2441.70345	0.15404
2439.77478	0.15422
2437.84610	0.15439
2435.91743	0.15454
2433.98875	0.15468
2432.06007	0.15484
2430.13140	0.15503
2428.20272	0.15522
2426.27405	0.15535
2424.34537	0.15546
2422.41670	0.15561
2420.48802	0.15578
2418.55934	0.15593
2416.63067	0.15608
2414.70199	0.15622
2412.77332	0.15634
2410.84464	0.15647
2408.91597	0.15662
2406.98729	0.15679
2405.05861	0.15697
2403.12994	0.15714
2401.20126	0.15728
2399.27259	0.15740
2397.34391	0.15755
2395.41524	0.15768
2393.48656	0.15779
2391.55788	0.15793
2389.62921	0.15807
2387.70053	0.15818
2385.77186	0.15828
2383.84318	0.15837
2381.91451	0.15845
2379.98583	0.15853
2378.05715	0.15858
2376.12848	0.15858
2374.19980	0.15854
2372.27113	0.15849
2370.34245	0.15845
2368.41378	0.15846
2366.48510	0.15847
2364.55642	0.15851
2362.62775	0.15859
2360.69907	0.15866
2358.77040	0.15872
2356.84172	0.15881
2354.91305	0.15890
2352.98437	0.15889
2351.05569	0.15860
2349.12702	0.15787
2347.19834	0.15667
2345.26967	0.15525
2343.34099	0.15411
2341.41232	0.15394
2339.48364	0.15528
2337.55496	0.15765
2335.62629	0.15979
2333.69761	0.16095
2331.76894	0.16140
2329.84026	0.16160
2327.91159	0.16182
2325.98291	0.16212
2324.05423	0.16242
2322.12556	0.16268
2320.19688	0.16292
2318.26821	0.16315
2316.33953	0.16336
2314.41086	0.16354
2312.48218	0.16369
2310.55350	0.16388
2308.62483	0.16409
2306.69615	0.16429
2304.76748	0.16449
2302.83880	0.16470
2300.91013	0.16488
2298.98145	0.16502
2297.05277	0.16514
2295.12410	0.16526
2293.19542	0.16538
2291.26675	0.16553
2289.33807	0.16569
2287.40940	0.16584
2285.48072	0.16594
2283.55204	0.16605
2281.62337	0.16620
2279.69469	0.16638
2277.76602	0.16653
2275.83734	0.16669
2273.90867	0.16687
2271.97999	0.16706
2270.05131	0.16723
2268.12264	0.16738
2266.19396	0.16756
2264.26529	0.16775
2262.33661	0.16789
2260.40794	0.16803
2258.47926	0.16820
2256.55058	0.16838
2254.62191	0.16851
2252.69323	0.16863
2250.76456	0.16878
2248.83588	0.16896
2246.90721	0.16916
2244.97853	0.16933
2243.04985	0.16948
2241.12118	0.16962
2239.19250	0.16977
2237.26383	0.16994
2235.33515	0.17012
2233.40648	0.17031
2231.47780	0.17047
2229.54912	0.17061
2227.62045	0.17076
2225.69177	0.17096
2223.76310	0.17112
2221.83442	0.17125
2219.90575	0.17141
2217.97707	0.17156
2216.04839	0.17168
2214.11972	0.17181
2212.19104	0.17196
2210.26237	0.17211
2208.33369	0.17226
2206.40502	0.17238
2204.47634	0.17249
2202.54766	0.17265
2200.61899	0.17284
2198.69031	0.17300
2196.76164	0.17312
2194.83296	0.17322
2192.90429	0.17334
2190.97561	0.17351
2189.04693	0.17370
2187.11826	0.17384
2185.18958	0.17395
2183.26091	0.17408
2181.33223	0.17422
2179.40356	0.17438
2177.47488	0.17454
2175.54620	0.17466
2173.61753	0.17476
2171.68885	0.17490
2169.76018	0.17506
2167.83150	0.17523
2165.90283	0.17540
2163.97415	0.17555
2162.04547	0.17567
2160.11680	0.17577
2158.18812	0.17593
2156.25945	0.17610
2154.33077	0.17625
2152.40210	0.17640
2150.47342	0.17656
2148.54474	0.17670
2146.61607	0.17681
2144.68739	0.17692
2142.75872	0.17705
2140.83004	0.17720
2138.90137	0.17732
2136.97269	0.17741
2135.04401	0.17754
2133.11534	0.17774
2131.18666	0.17792
2129.25799	0.17806
2127.32931	0.17822
2125.40064	0.17843
2123.47196	0.17862
2121.54328	0.17877
2119.61461	0.17894
2117.68593	0.17908
2115.75726	0.17919
2113.82858	0.17931
2111.89991	0.17945
2109.97123	0.17961
2108.04255	0.17975
2106.11388	0.17990
2104.18520	0.18007
2102.25653	0.18024
2100.32785	0.18038
2098.39918	0.18049
2096.47050	0.18062
2094.54182	0.18078
2092.61315	0.18091
2090.68447	0.18103
2088.75580	0.18116
2086.82712	0.18133
2084.89845	0.18151
2082.96977	0.18165
2081.04109	0.18175
2079.11242	0.18186
2077.18374	0.18199
2075.25507	0.18212
2073.32639	0.18226
2071.39772	0.18243
2069.46904	0.18258
2067.54036	0.18270
2065.61169	0.18280
2063.68301	0.18293
2061.75434	0.18309
2059.82566	0.18324
2057.89699	0.18337
2055.96831	0.18350
2054.03963	0.18368
2052.11096	0.18389
2050.18228	0.18407
2048.25361	0.18416
2046.32493	0.18424
2044.39626	0.18437
2042.46758	0.18454
2040.53890	0.18473
2038.61023	0.18488
2036.68155	0.18502
2034.75288	0.18518
2032.82420	0.18533
2030.89553	0.18544
2028.96685	0.18559
2027.03817	0.18574
2025.10950	0.18581
2023.18082	0.18589
2021.25215	0.18604
2019.32347	0.18617
2017.39480	0.18628
2015.46612	0.18645
2013.53744	0.18664
2011.60877	0.18682
2009.68009	0.18694
2007.75142	0.18703
2005.82274	0.18715
2003.89407	0.18728
2001.96539	0.18739
2000.03671	0.18748
1998.10804	0.18762
1996.17936	0.18781
1994.25069	0.18792
1992.32201	0.18798
1990.39334	0.18812
1988.46466	0.18834
1986.53598	0.18851
1984.60731	0.18861
1982.67863	0.18869
1980.74996	0.18877
1978.82128	0.18884
1976.89261	0.18892
1974.96393	0.18902
1973.03525	0.18917
1971.10658	0.18933
1969.17790	0.18946
1967.24923	0.18956
1965.32055	0.18968
1963.39188	0.18979
1961.46320	0.18987
1959.53452	0.18996
1957.60585	0.19010
1955.67717	0.19024
1953.74850	0.19040
1951.81982	0.19056
1949.89115	0.19074
1947.96247	0.19092
1946.03379	0.19102
1944.10512	0.19107
1942.17644	0.19117
1940.24777	0.19137
1938.31909	0.19159
1936.39042	0.19175
1934.46174	0.19187
1932.53306	0.19196
1930.60439	0.19204
1928.67571	0.19215
1926.74704	0.19231
1924.81836	0.19247
1922.88969	0.19257
1920.96101	0.19263
1919.03233	0.19268
1917.10366	0.19285
1915.17498	0.19311
1913.24631	0.19330
1911.31763	0.19339
1909.38896	0.19349
1907.46028	0.19365
1905.53160	0.19384
1903.60293	0.19400
1901.67425	0.19408
1899.74558	0.19416
1897.81690	0.19425
1895.88823	0.19434
1893.95955	0.19445
1892.03087	0.19454
1890.10220	0.19460
1888.17352	0.19472
1886.24485	0.19492
1884.31617	0.19511
1882.38750	0.19526
1880.45882	0.19536
1878.53014	0.19546
1876.60147	0.19559
1874.67279	0.19572
1872.74412	0.19576
1870.81544	0.19568
1868.88677	0.19567
1866.95809	0.19591
1865.02941	0.19624
1863.10074	0.19647
1861.17206	0.19664
1859.24339	0.19684
1857.31471	0.19704
1855.38604	0.19720
1853.45736	0.19736
1851.52868	0.19750
1849.60001	0.19756
1847.67133	0.19749
1845.74266	0.19737
1843.81398	0.19746
1841.88531	0.19786
1839.95663	0.19826
1838.02795	0.19849
1836.09928	0.19863
1834.17060	0.19868
1832.24193	0.19861
1830.31325	0.19855
1828.38458	0.19869
1826.45590	0.19891
1824.52722	0.19907
1822.59855	0.19929
1820.66987	0.19953
1818.74120	0.19972
1816.81252	0.19988
1814.88385	0.19999
1812.95517	0.20003
1811.02649	0.20008
1809.09782	0.20026
1807.16914	0.20046
1805.24047	0.20052
1803.31179	0.20044
1801.38312	0.20041
1799.45444	0.20057
1797.52576	0.20079
1795.59709	0.20084
1793.66841	0.20069
1791.73974	0.20067
1789.81106	0.20094
1787.88239	0.20121
1785.95371	0.20131
1784.02503	0.20139
1782.09636	0.20149
1780.16768	0.20159
1778.23901	0.20169
1776.31033	0.20166
1774.38166	0.20144
1772.45298	0.20126
1770.52430	0.20132
1768.59563	0.20157
1766.66695	0.20187
1764.73828	0.20202
1762.80960	0.20195
1760.88093	0.20195
1758.95225	0.20200
1757.02357	0.20197
1755.09490	0.20193
1753.16622	0.20171
1751.23755	0.20139
1749.30887	0.20132
1747.38020	0.20142
1745.45152	0.20145
1743.52284	0.20135
1741.59417	0.20121
1739.66549	0.20112
1737.73682	0.20100
1735.80814	0.20063
1733.87947	0.20040
1731.95079	0.20068
1730.02211	0.20115
1728.09344	0.20149
1726.16476	0.20167
1724.23609	0.20172
1722.30741	0.20168
1720.37874	0.20143
1718.45006	0.20110
1716.52138	0.20112
1714.59271	0.20157
1712.66403	0.20210
1710.73536	0.20239
1708.80668	0.20237
1706.87801	0.20223
1704.94933	0.20216
1703.02065	0.20194
1701.09198	0.20154
1699.16330	0.20148
1697.23463	0.20170
1695.30595	0.20202
1693.37728	0.20248
1691.44860	0.20273
1689.51992	0.20264
1687.59125	0.20236
1685.66257	0.20192
1683.73390	0.20180
1681.80522	0.20223
1679.87655	0.20269
1677.94787	0.20275
1676.01919	0.20258
1674.09052	0.20253
1672.16184	0.20253
1670.23317	0.20248
1668.30449	0.20269
1666.37582	0.20308
1664.44714	0.20315
1662.51846	0.20307
1660.58979	0.20317
1658.66111	0.20321
1656.73244	0.20275
1654.80376	0.20193
1652.87509	0.20167
1650.94641	0.20222
1649.01773	0.20259
1647.08906	0.20255
1645.16038	0.20279
1643.23171	0.20325
1641.30303	0.20346
1639.37436	0.20327
1637.44568	0.20290
1635.51700	0.20282
1633.58833	0.20323
1631.65965	0.20364
1629.73098	0.20366
1627.80230	0.20344
1625.87363	0.20311
1623.94495	0.20270
1622.01627	0.20241
1620.08760	0.20236
1618.15892	0.20251
1616.23025	0.20303
1614.30157	0.20381
1612.37290	0.20440
1610.44422	0.20472
1608.51554	0.20498
1606.58687	0.20529
1604.65819	0.20556
1602.72952	0.20576
1600.80084	0.20592
1598.87217	0.20609
1596.94349	0.20622
1595.01481	0.20633
1593.08614	0.20649
1591.15746	0.20669
1589.22879	0.20688
1587.30011	0.20707
1585.37144	0.20726
1583.44276	0.20742
1581.51408	0.20750
1579.58541	0.20741
1577.65673	0.20719
1575.72806	0.20719
1573.79938	0.20751
1571.87071	0.20769
1569.94203	0.20769
1568.01335	0.20783
1566.08468	0.20805
1564.15600	0.20815
1562.22733	0.20791
1560.29865	0.20734
1558.36998	0.20716
1556.44130	0.20772
1554.51262	0.20840
1552.58395	0.20878
1550.65527	0.20898
1548.72660	0.20909
1546.79792	0.20901
1544.86925	0.20866
1542.94057	0.20825
1541.01189	0.20808
1539.08322	0.20839
1537.15454	0.20896
1535.22587	0.20921
1533.29719	0.20927
1531.36852	0.20951
1529.43984	0.20966
1527.51116	0.20957
1525.58249	0.20945
1523.65381	0.20922
1521.72514	0.20896
1519.79646	0.20902
1517.86779	0.20926
1515.93911	0.20948
1514.01043	0.20968
1512.08176	0.20967
1510.15308	0.20936
1508.22441	0.20901
1506.29573	0.20913
1504.36706	0.20977
1502.43838	0.21022
1500.50970	0.21013
1498.58103	0.20987
1496.65235	0.20983
1494.72368	0.20997
1492.79500	0.20991
1490.86633	0.20957
1488.93765	0.20937
1487.00897	0.20945
1485.08030	0.20953
1483.15162	0.20942
1481.22295	0.20919
1479.29427	0.20885
1477.36560	0.20833
1475.43692	0.20770
1473.50824	0.20713
1471.57957	0.20685
1469.65089	0.20679
1467.72222	0.20653
1465.79354	0.20614
1463.86487	0.20595
1461.93619	0.20578
1460.00751	0.20516
1458.07884	0.20440
1456.15016	0.20427
1454.22149	0.20473
1452.29281	0.20505
1450.36414	0.20503
1448.43546	0.20493
1446.50678	0.20502
1444.57811	0.20528
1442.64943	0.20550
1440.72076	0.20547
1438.79208	0.20514
1436.86341	0.20489
1434.93473	0.20513
1433.00605	0.20550
1431.07738	0.20564
1429.14870	0.20570
1427.22003	0.20576
1425.29135	0.20577
1423.36268	0.20569
1421.43400	0.20539
1419.50532	0.20504
1417.57665	0.20511
1415.64797	0.20549
1413.71930	0.20572
1411.79062	0.20574
1409.86195	0.20566
1407.93327	0.20555
1406.00459	0.20544
1404.07592	0.20541
1402.14724	0.20539
1400.21857	0.20519
1398.28989	0.20489
1396.36122	0.20460
1394.43254	0.20450
1392.50386	0.20461
1390.57519	0.20455
1388.64651	0.20414
1386.71784	0.20370
1384.78916	0.20351
1382.86049	0.20350
1380.93181	0.20354
1379.00313	0.20354
1377.07446	0.20337
1375.14578	0.20312
1373.21711	0.20305
1371.28843	0.20318
1369.35976	0.20330
1367.43108	0.20330
1365.50240	0.20311
1363.57373	0.20284
1361.64505	0.20275
1359.71638	0.20284
1357.78770	0.20286
1355.85903	0.20284
1353.93035	0.20289
1352.00167	0.20292
1350.07300	0.20294
1348.14432	0.20302
1346.21565	0.20311
1344.28697	0.20307
1342.35830	0.20288
1340.42962	0.20265
1338.50094	0.20254
1336.57227	0.20252
1334.64359	0.20244
1332.71492	0.20226
1330.78624	0.20199
1328.85757	0.20167
1326.92889	0.20138
1325.00021	0.20114
1323.07154	0.20086
1321.14286	0.20051
1319.21419	0.20018
1317.28551	0.19994
1315.35684	0.19973
1313.42816	0.19948
1311.49948	0.19916
1309.57081	0.19879
1307.64213	0.19840
1305.71346	0.19800
1303.78478	0.19760
1301.85611	0.19725
1299.92743	0.19693
1297.99875	0.19657
1296.07008	0.19615
1294.14140	0.19577
1292.21273	0.19545
1290.28405	0.19509
1288.35538	0.19467
1286.42670	0.19420
1284.49802	0.19368
1282.56935	0.19315
1280.64067	0.19263
1278.71200	0.19216
1276.78332	0.19167
1274.85465	0.19114
1272.92597	0.19055
1270.99729	0.18982
1269.06862	0.18886
1267.13994	0.18769
1265.21127	0.18653
1263.28259	0.18559
1261.35392	0.18496
1259.42524	0.18455
1257.49656	0.18423
1255.56789	0.18390
1253.63921	0.18345
1251.71054	0.18280
1249.78186	0.18196
1247.85319	0.18103
1245.92451	0.18010
1243.99583	0.17912
1242.06716	0.17808
1240.13848	0.17697
1238.20981	0.17580
1236.28113	0.17461
1234.35246	0.17339
1232.42378	0.17216
1230.49510	0.17093
1228.56643	0.16972
1226.63775	0.16855
1224.70908	0.16742
1222.78040	0.16633
1220.85173	0.16522
1218.92305	0.16406
1216.99437	0.16285
1215.06570	0.16166
1213.13702	0.16052
1211.20835	0.15945
1209.27967	0.15843
1207.35100	0.15738
1205.42232	0.15628
1203.49364	0.15515
1201.56497	0.15403
1199.63629	0.15294
1197.70762	0.15187
1195.77894	0.15080
1193.85027	0.14972
1191.92159	0.14861
1189.99291	0.14750
1188.06424	0.14641
1186.13556	0.14531
1184.20689	0.14419
1182.27821	0.14303
1180.34954	0.14181
1178.42086	0.14060
1176.49218	0.13944
1174.56351	0.13825
1172.63483	0.13700
1170.70616	0.13578
1168.77748	0.13464
1166.84881	0.13354
1164.92013	0.13243
1162.99145	0.13130
1161.06278	0.13016
1159.13410	0.12904
1157.20543	0.12797
1155.27675	0.12688
1153.34808	0.12577
1151.41940	0.12471
1149.49072	0.12368
1147.56205	0.12265
1145.63337	0.12157
1143.70470	0.12048
1141.77602	0.11939
1139.84735	0.11827
1137.91867	0.11708
1135.98999	0.11576
1134.06132	0.11429
1132.13264	0.11268
1130.20397	0.11088
1128.27529	0.10886
1126.34662	0.10669
1124.41794	0.10444
1122.48926	0.10219
1120.56059	0.09996
1118.63191	0.09773
1116.70324	0.09554
1114.77456	0.09346
1112.84589	0.09155
1110.91721	0.08974
1108.98853	0.08802
1107.05986	0.08641
1105.13118	0.08485
1103.20251	0.08327
1101.27383	0.08169
1099.34516	0.08012
1097.41648	0.07858
1095.48780	0.07706
1093.55913	0.07549
1091.63045	0.07385
1089.70178	0.07225
1087.77310	0.07074
1085.84443	0.06925
1083.91575	0.06775
1081.98707	0.06633
1080.05840	0.06504
1078.12972	0.06390
1076.20105	0.06293
1074.27237	0.06215
1072.34370	0.06147
1070.41502	0.06089
1068.48634	0.06047
1066.55767	0.06028
1064.62899	0.06021
1062.70032	0.06022
1060.77164	0.06037
1058.84297	0.06071
1056.91429	0.06121
1054.98561	0.06184
1053.05694	0.06248
1051.12826	0.06314
1049.19959	0.06394
1047.27091	0.06493
1045.34224	0.06600
1043.41356	0.06715
1041.48488	0.06846
1039.55621	0.06989
1037.62753	0.07133
1035.69886	0.07281
1033.77018	0.07436
1031.84151	0.07604
1029.91283	0.07788
1027.98415	0.07991
1026.05548	0.08210
1024.12680	0.08439
1022.19813	0.08680
1020.26945	0.08936
1018.34078	0.09200
1016.41210	0.09475
1014.48342	0.09764
1012.55475	0.10064
1010.62607	0.10374
1008.69740	0.10687
1006.76872	0.10995
1004.84005	0.11289
1002.91137	0.11568
1000.98269	0.11831
999.05402	0.12080
997.12534	0.12310
995.19667	0.12516
993.26799	0.12700
991.33932	0.12862
989.41064	0.13002
987.48196	0.13126
985.55329	0.13240
983.62461	0.13341
981.69594	0.13425
979.76726	0.13490
977.83859	0.13531
975.90991	0.13550
973.98123	0.13568
972.05256	0.13586
970.12388	0.13591
968.19521	0.13586
966.26653	0.13581
964.33786	0.13574
962.40918	0.13567
960.48050	0.13557
958.55183	0.13541
956.62315	0.13524
954.69448	0.13510
952.76580	0.13493
950.83713	0.13472
948.90845	0.13449
946.97977	0.13427
945.05110	0.13405
943.12242	0.13382
941.19375	0.13353
939.26507	0.13312
937.33640	0.13267
935.40772	0.13223
933.47904	0.13180
931.55037	0.13136
929.62169	0.13094
927.69302	0.13056
925.76434	0.13015
923.83567	0.12970
921.90699	0.12923
919.97831	0.12877
918.04964	0.12824
916.12096	0.12763
914.19229	0.12698
912.26361	0.12635
910.33494	0.12576
908.40626	0.12521
906.47758	0.12464
904.54891	0.12410
902.62023	0.12360
900.69156	0.12311
898.76288	0.12264
896.83421	0.12215
894.90553	0.12165
892.97685	0.12120
891.04818	0.12080
889.11950	0.12046
887.19083	0.12016
885.26215	0.11984
883.33348	0.11956
881.40480	0.11938
879.47612	0.11922
877.54745	0.11908
875.61877	0.11906
873.69010	0.11913
871.76142	0.11917
869.83275	0.11914
867.90407	0.11908
865.97539	0.11905
864.04672	0.11899
862.11804	0.11889
860.18937	0.11878
858.26069	0.11863
856.33202	0.11833
854.40334	0.11791
852.47466	0.11745
850.54599	0.11691
848.61731	0.11622
846.68864	0.11550
844.75996	0.11487
842.83129	0.11436
840.90261	0.11381
838.97394	0.11312
837.04526	0.11227
835.11658	0.11125
833.18791	0.11008
831.25923	0.10888
829.33056	0.10773
827.40188	0.10658
825.47321	0.10545
823.54453	0.10440
821.61585	0.10345
819.68718	0.10262
817.75850	0.10196
815.82983	0.10139
813.90115	0.10088
811.97248	0.10050
810.04380	0.10025
808.11512	0.10006
806.18645	0.09993
804.25777	0.09986
802.32910	0.09980
800.40042	0.09961
798.47175	0.09926
796.54307	0.09890
794.61439	0.09863
792.68572	0.09853
790.75704	0.09856
788.82837	0.09859
786.89969	0.09863
784.97102	0.09870
783.04234	0.09874
781.11366	0.09876
779.18499	0.09889
777.25631	0.09909
775.32764	0.09918
773.39896	0.09914
771.47029	0.09904
769.54161	0.09891
767.61293	0.09878
765.68426	0.09862
763.75558	0.09835
761.82691	0.09805
759.89823	0.09782
757.96956	0.09753
756.04088	0.09703
754.11220	0.09646
752.18353	0.09597
750.25485	0.09548
748.32618	0.09493
746.39750	0.09432
744.46883	0.09357
742.54015	0.09266
740.61147	0.09183
738.68280	0.09131
736.75412	0.09112
734.82545	0.09115
732.89677	0.09125
730.96810	0.09136
729.03942	0.09152
727.11074	0.09169
725.18207	0.09179
723.25339	0.09184
721.32472	0.09189
719.39604	0.09199
717.46737	0.09223
715.53869	0.09269
713.61001	0.09326
711.68134	0.09370
709.75266	0.09386
707.82399	0.09386
705.89531	0.09374
703.96664	0.09353
702.03796	0.09325
700.10928	0.09288
698.18061	0.09245
696.25193	0.09191
694.32326	0.09124
692.39458	0.09062
690.46591	0.09023
688.53723	0.08993
686.60855	0.08946
684.67988	0.08891
682.75120	0.08843
680.82253	0.08795
678.89385	0.08731
676.96518	0.08658
675.03650	0.08592
673.10782	0.08524
671.17915	0.08435
669.25047	0.08334
667.32180	0.08243
665.39312	0.08163
663.46445	0.08078
661.53577	0.07994
659.60709	0.07910
657.67842	0.07821
655.74974	0.07735
653.82107	0.07658
651.89239	0.07591
649.96372	0.07524
648.03504	0.07448
646.10636	0.07368
644.17769	0.07282
642.24901	0.07182
640.32034	0.07081
638.39166	0.06987
636.46299	0.06890
634.53431	0.06779
632.60563	0.06636
630.67696	0.06417
628.74828	0.06078
626.81961	0.05649
624.89093	0.05215
622.96226	0.04865
621.03358	0.04649
619.10490	0.04533
617.17623	0.04449
615.24755	0.04366
613.31888	0.04270
611.39020	0.04178
609.46153	0.04131
607.53285	0.04136
605.60417	0.04164
603.67550	0.04205
601.74682	0.04269
599.81815	0.04354
597.88947	0.04443
595.96080	0.04513
594.03212	0.04559
592.10344	0.04584
590.17477	0.04590
588.24609	0.04580
586.31742	0.04567
584.38874	0.04550
582.46007	0.04518
580.53139	0.04462
578.60271	0.04399
576.67404	0.04343
574.74536	0.04298
572.81669	0.04254
570.88801	0.04201
568.95934	0.04147
567.03066	0.04107
565.10198	0.04078
563.17331	0.04050
561.24463	0.04025
559.31596	0.04001
557.38728	0.03969
555.45861	0.03934
553.52993	0.03912
551.60125	0.03900
549.67258	0.03885
547.74390	0.03869
545.81523	0.03864
543.88655	0.03867
541.95788	0.03855
540.02920	0.03824
538.10052	0.03796
536.17185	0.03775
534.24317	0.03746
532.31450	0.03709
530.38582	0.03680
528.45715	0.03656
526.52847	0.03628
524.59979	0.03599
522.67112	0.03564
520.74244	0.03510
518.81377	0.03442
516.88509	0.03373
514.95642	0.03317
513.02774	0.03282
511.09906	0.03266
509.17039	0.03260
507.24171	0.03245
505.31304	0.03201
503.38436	0.03142
501.45569	0.03088
499.52701	0.03035
497.59833	0.02972
495.66966	0.02898
493.74098	0.02820
491.81231	0.02749
489.88363	0.02693
487.95496	0.02638
486.02628	0.02573
484.09760	0.02502
482.16893	0.02432
480.24025	0.02368
478.31158	0.02303
476.38290	0.02232
474.45423	0.02159
472.52555	0.02091
470.59687	0.02024
468.66820	0.01955
466.73952	0.01898
464.81085	0.01868
462.88217	0.01856
460.95350	0.01844
459.02482	0.01822
457.09614	0.01795
455.16747	0.01786
453.23879	0.01791
451.31012	0.01785
449.38144	0.01767
447.45277	0.01755
445.52409	0.01749
443.59541	0.01732
441.66674	0.01701
439.73806	0.01667
437.80939	0.01632
435.88071	0.01593
433.95204	0.01564
432.02336	0.01537
430.09468	0.01496
428.16601	0.01451
426.23733	0.01416
424.30866	0.01385
422.37998	0.01349
420.45131	0.01302
418.52263	0.01245
416.59395	0.01192
414.66528	0.01151
412.73660	0.01114
410.80793	0.01074
408.87925	0.01031
406.95058	0.00980
405.02190	0.00925
403.09322	0.00881
401.16455	0.00838
399.23587	0.00780
397.30720	0.00725
395.37852	0.00691
393.44985	0.00664
391.52117	0.00628
389.59249	0.00578
387.66382	0.00532
385.73514	0.00497
383.80647	0.00457
381.87779	0.00419
379.94912	0.00400
378.02044	0.00382
376.09176	0.00352
374.16309	0.00321
372.23441	0.00295
370.30574	0.00266
368.37706	0.00230
