7496.76250	0.00127
7494.83382	0.00127
7492.90514	0.00128
7490.97647	0.00130
7489.04779	0.00130
7487.11912	0.00129
7485.19044	0.00129
7483.26177	0.00129
7481.33309	0.00130
7479.40441	0.00132
7477.47574	0.00133
7475.54706	0.00132
7473.61839	0.00131
7471.68971	0.00131
7469.76104	0.00132
7467.83236	0.00133
7465.90368	0.00134
7463.97501	0.00134
7462.04633	0.00134
7460.11766	0.00136
7458.18898	0.00138
7456.26031	0.00138
7454.33163	0.00137
7452.40295	0.00136
7450.47428	0.00136
7448.54560	0.00137
7446.61693	0.00138
7444.68825	0.00139
7442.75958	0.00138
7440.83090	0.00137
7438.90222	0.00136
7436.97355	0.00136
7435.04487	0.00137
7433.11620	0.00138
7431.18752	0.00139
7429.25885	0.00140
7427.33017	0.00142
7425.40149	0.00142
7423.47282	0.00143
7421.54414	0.00144
7419.61547	0.00145
7417.68679	0.00144
7415.75812	0.00143
7413.82944	0.00144
7411.90076	0.00144
7409.97209	0.00145
7408.04341	0.00145
7406.11474	0.00145
7404.18606	0.00144
7402.25739	0.00144
7400.32871	0.00145
7398.40003	0.00148
7396.47136	0.00149
7394.54268	0.00148
7392.61401	0.00147
7390.68533	0.00147
7388.75666	0.00149
7386.82798	0.00150
7384.89930	0.00151
7382.97063	0.00151
7381.04195	0.00151
7379.11328	0.00152
7377.18460	0.00153
7375.25593	0.00154
7373.32725	0.00153
7371.39857	0.00151
7369.46990	0.00151
7367.54122	0.00152
7365.61255	0.00154
7363.68387	0.00154
7361.75520	0.00154
7359.82652	0.00154
7357.89784	0.00154
7355.96917	0.00153
7354.04049	0.00153
7352.11182	0.00154
7350.18314	0.00156
7348.25447	0.00157
7346.32579	0.00156
7344.39711	0.00157
7342.46844	0.00159
7340.53976	0.00159
7338.61109	0.00159
7336.68241	0.00159
7334.75374	0.00159
7332.82506	0.00160
7330.89638	0.00160
7328.96771	0.00160
7327.03903	0.00161
7325.11036	0.00162
7323.18168	0.00164
7321.25301	0.00164
7319.32433	0.00163
7317.39565	0.00163
7315.46698	0.00163
7313.53830	0.00164
7311.60963	0.00164
7309.68095	0.00165
7307.75228	0.00165
7305.82360	0.00164
7303.89492	0.00165
7301.96625	0.00167
7300.03757	0.00168
7298.10890	0.00166
7296.18022	0.00166
7294.25155	0.00167
7292.32287	0.00168
7290.39419	0.00169
7288.46552	0.00168
7286.53684	0.00169
7284.60817	0.00170
7282.67949	0.00171
7280.75082	0.00171
7278.82214	0.00172
7276.89346	0.00171
7274.96479	0.00171
7273.03611	0.00172
7271.10744	0.00173
7269.17876	0.00173
7267.25009	0.00173
7265.32141	0.00174
7263.39273	0.00175
7261.46406	0.00174
7259.53538	0.00174
7257.60671	0.00175
7255.67803	0.00175
7253.74936	0.00174
7251.82068	0.00174
7249.89200	0.00174
7247.96333	0.00175
7246.03465	0.00177
7244.10598	0.00179
7242.17730	0.00180
7240.24863	0.00180
7238.31995	0.00180
7236.39127	0.00181
7234.46260	0.00180
7232.53392	0.00181
7230.60525	0.00182
7228.67657	0.00182
7226.74790	0.00181
7224.81922	0.00181
7222.89054	0.00182
7220.96187	0.00183
7219.03319	0.00183
7217.10452	0.00183
7215.17584	0.00183
7213.24717	0.00184
7211.31849	0.00184
7209.38981	0.00184
7207.46114	0.00184
7205.53246	0.00184
7203.60379	0.00186
7201.67511	0.00188
7199.74644	0.00188
7197.81776	0.00187
7195.88908	0.00188
7193.96041	0.00189
7192.03173	0.00190
7190.10306	0.00191
7188.17438	0.00192
7186.24571	0.00192
7184.31703	0.00192
7182.38835	0.00193
7180.45968	0.00195
7178.53100	0.00195
7176.60233	0.00194
7174.67365	0.00193
7172.74498	0.00192
7170.81630	0.00193
7168.88762	0.00196
7166.95895	0.00199
7165.03027	0.00200
7163.10160	0.00201
7161.17292	0.00201
7159.24425	0.00201
7157.31557	0.00200
7155.38689	0.00199
7153.45822	0.00199
7151.52954	0.00200
7149.60087	0.00200
7147.67219	0.00201
7145.74352	0.00202
7143.81484	0.00201
7141.88616	0.00199
7139.95749	0.00200
7138.02881	0.00203
7136.10014	0.00206
7134.17146	0.00207
7132.24279	0.00207
7130.31411	0.00207
7128.38543	0.00207
7126.45676	0.00208
7124.52808	0.00209
7122.59941	0.00209
7120.67073	0.00208
7118.74206	0.00208
7116.81338	0.00209
7114.88470	0.00211
7112.95603	0.00212
7111.02735	0.00211
7109.09868	0.00210
7107.17000	0.00210
7105.24133	0.00211
7103.31265	0.00213
7101.38397	0.00215
7099.45530	0.00214
7097.52662	0.00214
7095.59795	0.00214
7093.66927	0.00215
7091.74060	0.00215
7089.81192	0.00216
7087.88324	0.00217
7085.95457	0.00218
7084.02589	0.00217
7082.09722	0.00218
7080.16854	0.00219
7078.23987	0.00219
7076.31119	0.00218
7074.38251	0.00218
7072.45384	0.00219
7070.52516	0.00221
7068.59649	0.00221
7066.66781	0.00220
7064.73914	0.00221
7062.81046	0.00224
7060.88178	0.00225
7058.95311	0.00224
7057.02443	0.00224
7055.09576	0.00226
7053.16708	0.00228
7051.23841	0.00229
7049.30973	0.00229
7047.38105	0.00227
7045.45238	0.00226
7043.52370	0.00227
7041.59503	0.00228
7039.66635	0.00229
7037.73768	0.00229
7035.80900	0.00228
7033.88032	0.00228
7031.95165	0.00230
7030.02297	0.00232
7028.09430	0.00232
7026.16562	0.00232
7024.23695	0.00233
7022.30827	0.00234
7020.37959	0.00236
7018.45092	0.00236
7016.52224	0.00236
7014.59357	0.00236
7012.66489	0.00235
7010.73622	0.00235
7008.80754	0.00237
7006.87886	0.00239
7004.95019	0.00240
7003.02151	0.00240
7001.09284	0.00240
6999.16416	0.00241
6997.23549	0.00242
6995.30681	0.00243
6993.37813	0.00242
6991.44946	0.00241
6989.52078	0.00240
6987.59211	0.00240
6985.66343	0.00242
6983.73476	0.00245
6981.80608	0.00247
6979.87740	0.00246
6977.94873	0.00246
6976.02005	0.00247
6974.09138	0.00248
6972.16270	0.00248
6970.23403	0.00248
6968.30535	0.00248
6966.37667	0.00250
6964.44800	0.00250
6962.51932	0.00250
6960.59065	0.00249
6958.66197	0.00247
6956.73330	0.00247
6954.80462	0.00250
6952.87594	0.00253
6950.94727	0.00254
6949.01859	0.00253
6947.08992	0.00253
6945.16124	0.00254
6943.23257	0.00256
6941.30389	0.00257
6939.37521	0.00257
6937.44654	0.00257
6935.51786	0.00258
6933.58919	0.00259
6931.66051	0.00260
6929.73184	0.00260
6927.80316	0.00259
6925.87448	0.00260
6923.94581	0.00261
6922.01713	0.00262
6920.08846	0.00262
6918.15978	0.00263
6916.23111	0.00263
6914.30243	0.00265
6912.37375	0.00267
6910.44508	0.00268
6908.51640	0.00268
6906.58773	0.00268
6904.65905	0.00269
6902.73038	0.00268
6900.80170	0.00268
6898.87302	0.00270
6896.94435	0.00272
6895.01567	0.00273
6893.08700	0.00272
6891.15832	0.00271
6889.22965	0.00271
6887.30097	0.00273
6885.37229	0.00273
6883.44362	0.00274
6881.51494	0.00274
6879.58627	0.00275
6877.65759	0.00275
6875.72892	0.00275
6873.80024	0.00275
6871.87156	0.00276
6869.94289	0.00278
6868.01421	0.00279
6866.08554	0.00279
6864.15686	0.00279
6862.22819	0.00280
6860.29951	0.00280
6858.37083	0.00281
6856.44216	0.00281
6854.51348	0.00281
6852.58481	0.00282
6850.65613	0.00284
6848.72746	0.00285
6846.79878	0.00285
6844.87010	0.00285
6842.94143	0.00285
6841.01275	0.00286
6839.08408	0.00288
6837.15540	0.00289
6835.22673	0.00289
6833.29805	0.00291
6831.36937	0.00293
6829.44070	0.00294
6827.51202	0.00296
6825.58335	0.00298
6823.65467	0.00298
6821.72600	0.00296
6819.79732	0.00294
6817.86864	0.00296
6815.93997	0.00297
6814.01129	0.00298
6812.08262	0.00299
6810.15394	0.00300
6808.22527	0.00301
6806.29659	0.00301
6804.36791	0.00302
6802.43924	0.00303
6800.51056	0.00303
6798.58189	0.00302
6796.65321	0.00302
6794.72454	0.00304
6792.79586	0.00305
6790.86718	0.00306
6788.93851	0.00306
6787.00983	0.00307
6785.08116	0.00307
6783.15248	0.00308
6781.22381	0.00309
6779.29513	0.00310
6777.36645	0.00311
6775.43778	0.00312
6773.50910	0.00313
6771.58043	0.00313
6769.65175	0.00313
6767.72308	0.00313
6765.79440	0.00313
6763.86572	0.00314
6761.93705	0.00316
6760.00837	0.00318
6758.07970	0.00319
6756.15102	0.00318
6754.22235	0.00317
6752.29367	0.00317
6750.36499	0.00319
6748.43632	0.00321
6746.50764	0.00320
6744.57897	0.00318
6742.65029	0.00318
6740.72162	0.00320
6738.79294	0.00322
6736.86426	0.00323
6734.93559	0.00325
6733.00691	0.00327
6731.07824	0.00329
6729.14956	0.00329
6727.22089	0.00329
6725.29221	0.00330
6723.36353	0.00331
6721.43486	0.00330
6719.50618	0.00331
6717.57751	0.00332
6715.64883	0.00333
6713.72016	0.00334
6711.79148	0.00336
6709.86280	0.00337
6707.93413	0.00336
6706.00545	0.00336
6704.07678	0.00337
6702.14810	0.00338
6700.21943	0.00339
6698.29075	0.00340
6696.36207	0.00342
6694.43340	0.00342
6692.50472	0.00343
6690.57605	0.00344
6688.64737	0.00345
6686.71870	0.00345
6684.79002	0.00344
6682.86134	0.00344
6680.93267	0.00345
6679.00399	0.00348
6677.07532	0.00351
6675.14664	0.00352
6673.21797	0.00351
6671.28929	0.00351
6669.36061	0.00353
6667.43194	0.00352
6665.50326	0.00351
6663.57459	0.00350
6661.64591	0.00351
6659.71724	0.00353
6657.78856	0.00354
6655.85988	0.00355
6653.93121	0.00356
6652.00253	0.00358
6650.07386	0.00359
6648.14518	0.00359
6646.21651	0.00359
6644.28783	0.00360
6642.35915	0.00363
6640.43048	0.00364
6638.50180	0.00365
6636.57313	0.00366
6634.64445	0.00366
6632.71578	0.00366
6630.78710	0.00367
6628.85842	0.00368
6626.92975	0.00369
6625.00107	0.00370
6623.07240	0.00370
6621.14372	0.00372
6619.21505	0.00373
6617.28637	0.00374
6615.35769	0.00374
6613.42902	0.00374
6611.50034	0.00374
6609.57167	0.00374
6607.64299	0.00375
6605.71432	0.00378
6603.78564	0.00380
6601.85696	0.00379
6599.92829	0.00379
6597.99961	0.00380
6596.07094	0.00382
6594.14226	0.00383
6592.21359	0.00382
6590.28491	0.00381
6588.35623	0.00383
6586.42756	0.00385
6584.49888	0.00387
6582.57021	0.00390
6580.64153	0.00393
6578.71286	0.00393
6576.78418	0.00391
6574.85550	0.00390
6572.92683	0.00391
6570.99815	0.00392
6569.06948	0.00393
6567.14080	0.00396
6565.21213	0.00399
6563.28345	0.00400
6561.35477	0.00400
6559.42610	0.00399
6557.49742	0.00399
6555.56875	0.00401
6553.64007	0.00401
6551.71140	0.00401
6549.78272	0.00402
6547.85404	0.00403
6545.92537	0.00405
6543.99669	0.00406
6542.06802	0.00407
6540.13934	0.00408
6538.21067	0.00408
6536.28199	0.00409
6534.35331	0.00410
6532.42464	0.00410
6530.49596	0.00410
6528.56729	0.00410
6526.63861	0.00411
6524.70994	0.00412
6522.78126	0.00414
6520.85258	0.00415
6518.92391	0.00417
6516.99523	0.00418
6515.06656	0.00419
6513.13788	0.00419
6511.20921	0.00421
6509.28053	0.00422
6507.35185	0.00423
6505.42318	0.00423
6503.49450	0.00424
6501.56583	0.00426
6499.63715	0.00428
6497.70848	0.00430
6495.77980	0.00430
6493.85112	0.00430
6491.92245	0.00431
6489.99377	0.00431
6488.06510	0.00432
6486.13642	0.00434
6484.20775	0.00434
6482.27907	0.00433
6480.35039	0.00435
6478.42172	0.00437
6476.49304	0.00439
6474.56437	0.00441
6472.63569	0.00441
6470.70702	0.00443
6468.77834	0.00444
6466.84966	0.00443
6464.92099	0.00443
6462.99231	0.00443
6461.06364	0.00444
6459.13496	0.00446
6457.20629	0.00447
6455.27761	0.00447
6453.34893	0.00448
6451.42026	0.00450
6449.49158	0.00452
6447.56291	0.00453
6445.63423	0.00454
6443.70556	0.00454
6441.77688	0.00454
6439.84820	0.00455
6437.91953	0.00456
6435.99085	0.00458
6434.06218	0.00460
6432.13350	0.00461
6430.20483	0.00461
6428.27615	0.00462
6426.34747	0.00464
6424.41880	0.00465
6422.49012	0.00465
6420.56145	0.00466
6418.63277	0.00468
6416.70410	0.00471
6414.77542	0.00472
6412.84674	0.00473
6410.91807	0.00473
6408.98939	0.00474
6407.06072	0.00474
6405.13204	0.00474
6403.20337	0.00475
6401.27469	0.00477
6399.34601	0.00479
6397.41734	0.00481
6395.48866	0.00481
6393.55999	0.00480
6391.63131	0.00480
6389.70264	0.00480
6387.77396	0.00482
6385.84528	0.00483
6383.91661	0.00483
6381.98793	0.00484
6380.05926	0.00487
6378.13058	0.00491
6376.20191	0.00493
6374.27323	0.00493
6372.34455	0.00493
6370.41588	0.00494
6368.48720	0.00495
6366.55853	0.00496
6364.62985	0.00498
6362.70118	0.00500
6360.77250	0.00501
6358.84382	0.00501
6356.91515	0.00501
6354.98647	0.00503
6353.05780	0.00505
6351.12912	0.00506
6349.20045	0.00506
6347.27177	0.00507
6345.34309	0.00509
6343.41442	0.00512
6341.48574	0.00513
6339.55707	0.00514
6337.62839	0.00515
6335.69972	0.00515
6333.77104	0.00516
6331.84236	0.00518
6329.91369	0.00520
6327.98501	0.00520
6326.05634	0.00520
6324.12766	0.00520
6322.19899	0.00522
6320.27031	0.00523
6318.34163	0.00525
6316.41296	0.00527
6314.48428	0.00528
6312.55561	0.00528
6310.62693	0.00527
6308.69826	0.00528
6306.76958	0.00530
6304.84090	0.00533
6302.91223	0.00535
6300.98355	0.00537
6299.05488	0.00537
6297.12620	0.00536
6295.19753	0.00537
6293.26885	0.00541
6291.34017	0.00545
6289.41150	0.00546
6287.48282	0.00547
6285.55415	0.00548
6283.62547	0.00550
6281.69680	0.00552
6279.76812	0.00551
6277.83944	0.00549
6275.91077	0.00550
6273.98209	0.00552
6272.05342	0.00554
6270.12474	0.00555
6268.19607	0.00555
6266.26739	0.00557
6264.33871	0.00559
6262.41004	0.00561
6260.48136	0.00562
6258.55269	0.00562
6256.62401	0.00563
6254.69534	0.00564
6252.76666	0.00566
6250.83798	0.00568
6248.90931	0.00569
6246.98063	0.00569
6245.05196	0.00571
6243.12328	0.00573
6241.19461	0.00575
6239.26593	0.00576
6237.33725	0.00576
6235.40858	0.00577
6233.47990	0.00578
6231.55123	0.00579
6229.62255	0.00579
6227.69388	0.00579
6225.76520	0.00581
6223.83652	0.00583
6221.90785	0.00585
6219.97917	0.00588
6218.05050	0.00589
6216.12182	0.00589
6214.19315	0.00591
6212.26447	0.00592
6210.33579	0.00594
6208.40712	0.00596
6206.47844	0.00597
6204.54977	0.00598
6202.62109	0.00599
6200.69242	0.00599
6198.76374	0.00600
6196.83506	0.00602
6194.90639	0.00605
6192.97771	0.00607
6191.04904	0.00608
6189.12036	0.00610
6187.19169	0.00612
6185.26301	0.00613
6183.33433	0.00613
6181.40566	0.00612
6179.47698	0.00612
6177.54831	0.00614
6175.61963	0.00616
6173.69096	0.00618
6171.76228	0.00620
6169.83360	0.00624
6167.90493	0.00627
6165.97625	0.00627
6164.04758	0.00626
6162.11890	0.00628
6160.19023	0.00631
6158.26155	0.00632
6156.33287	0.00631
6154.40420	0.00631
6152.47552	0.00632
6150.54685	0.00634
6148.61817	0.00636
6146.68950	0.00639
6144.76082	0.00642
6142.83214	0.00643
6140.90347	0.00642
6138.97479	0.00642
6137.04612	0.00644
6135.11744	0.00647
6133.18877	0.00650
6131.26009	0.00651
6129.33141	0.00652
6127.40274	0.00652
6125.47406	0.00654
6123.54539	0.00656
6121.61671	0.00657
6119.68804	0.00658
6117.75936	0.00660
6115.83068	0.00662
6113.90201	0.00664
6111.97333	0.00666
6110.04466	0.00668
6108.11598	0.00669
6106.18731	0.00670
6104.25863	0.00671
6102.32995	0.00672
6100.40128	0.00672
6098.47260	0.00672
6096.54393	0.00673
6094.61525	0.00676
6092.68658	0.00680
6090.75790	0.00682
6088.82922	0.00682
6086.90055	0.00684
6084.97187	0.00687
6083.04320	0.00688
6081.11452	0.00688
6079.18585	0.00690
6077.25717	0.00692
6075.32849	0.00694
6073.39982	0.00695
6071.47114	0.00695
6069.54247	0.00695
6067.61379	0.00697
6065.68512	0.00699
6063.75644	0.00701
6061.82776	0.00703
6059.89909	0.00706
6057.97041	0.00708
6056.04174	0.00709
6054.11306	0.00710
6052.18439	0.00711
6050.25571	0.00712
6048.32703	0.00713
6046.39836	0.00715
6044.46968	0.00717
6042.54101	0.00721
6040.61233	0.00724
6038.68366	0.00726
6036.75498	0.00725
6034.82630	0.00724
6032.89763	0.00724
6030.96895	0.00726
6029.04028	0.00730
6027.11160	0.00733
6025.18293	0.00737
6023.25425	0.00737
6021.32557	0.00736
6019.39690	0.00736
6017.46822	0.00739
6015.53955	0.00742
6013.61087	0.00743
6011.68220	0.00744
6009.75352	0.00747
6007.82484	0.00749
6005.89617	0.00751
6003.96749	0.00751
6002.03882	0.00751
6000.11014	0.00752
5998.18147	0.00754
5996.25279	0.00756
5994.32411	0.00760
5992.39544	0.00762
5990.46676	0.00764
5988.53809	0.00766
5986.60941	0.00768
5984.68074	0.00769
5982.75206	0.00769
5980.82338	0.00772
5978.89471	0.00774
5976.96603	0.00775
5975.03736	0.00775
5973.10868	0.00776
5971.18001	0.00777
5969.25133	0.00780
5967.32265	0.00785
5965.39398	0.00787
5963.46530	0.00787
5961.53663	0.00787
5959.60795	0.00789
5957.67928	0.00791
5955.75060	0.00793
5953.82192	0.00796
5951.89325	0.00798
5949.96457	0.00800
5948.03590	0.00802
5946.10722	0.00804
5944.17855	0.00805
5942.24987	0.00806
5940.32119	0.00808
5938.39252	0.00810
5936.46384	0.00813
5934.53517	0.00815
5932.60649	0.00816
5930.67782	0.00817
5928.74914	0.00820
5926.82046	0.00823
5924.89179	0.00826
5922.96311	0.00827
5921.03444	0.00829
5919.10576	0.00830
5917.17709	0.00832
5915.24841	0.00833
5913.31973	0.00835
5911.39106	0.00836
5909.46238	0.00836
5907.53371	0.00838
5905.60503	0.00840
5903.67636	0.00842
5901.74768	0.00845
5899.81900	0.00846
5897.89033	0.00847
5895.96165	0.00849
5894.03298	0.00851
5892.10430	0.00853
5890.17563	0.00855
5888.24695	0.00856
5886.31827	0.00858
5884.38960	0.00859
5882.46092	0.00861
5880.53225	0.00862
5878.60357	0.00864
5876.67490	0.00867
5874.74622	0.00869
5872.81755	0.00870
5870.88887	0.00870
5868.96019	0.00872
5867.03152	0.00875
5865.10284	0.00878
5863.17417	0.00881
5861.24549	0.00884
5859.31682	0.00886
5857.38814	0.00889
5855.45946	0.00891
5853.53079	0.00892
5851.60211	0.00894
5849.67344	0.00897
5847.74476	0.00897
5845.81609	0.00897
5843.88741	0.00899
5841.95873	0.00901
5840.03006	0.00902
5838.10138	0.00903
5836.17271	0.00906
5834.24403	0.00909
5832.31536	0.00911
5830.38668	0.00912
5828.45800	0.00915
5826.52933	0.00917
5824.60065	0.00920
5822.67198	0.00922
5820.74330	0.00923
5818.81463	0.00924
5816.88595	0.00925
5814.95727	0.00927
5813.02860	0.00928
5811.09992	0.00932
5809.17125	0.00935
5807.24257	0.00937
5805.31390	0.00939
5803.38522	0.00942
5801.45654	0.00944
5799.52787	0.00945
5797.59919	0.00946
5795.67052	0.00948
5793.74184	0.00950
5791.81317	0.00952
5789.88449	0.00954
5787.95581	0.00957
5786.02714	0.00959
5784.09846	0.00961
5782.16979	0.00963
5780.24111	0.00965
5778.31244	0.00969
5776.38376	0.00971
5774.45508	0.00971
5772.52641	0.00971
5770.59773	0.00974
5768.66906	0.00979
5766.74038	0.00984
5764.81171	0.00988
5762.88303	0.00989
5760.95435	0.00989
5759.02568	0.00990
5757.09700	0.00994
5755.16833	0.00997
5753.23965	0.00998
5751.31098	0.00999
5749.38230	0.01000
5747.45362	0.01000
5745.52495	0.01001
5743.59627	0.01005
5741.66760	0.01008
5739.73892	0.01011
5737.81025	0.01013
5735.88157	0.01015
5733.95289	0.01016
5732.02422	0.01017
5730.09554	0.01019
5728.16687	0.01022
5726.23819	0.01026
5724.30952	0.01030
5722.38084	0.01034
5720.45216	0.01035
5718.52349	0.01036
5716.59481	0.01037
5714.66614	0.01039
5712.73746	0.01040
5710.80879	0.01043
5708.88011	0.01045
5706.95143	0.01047
5705.02276	0.01050
5703.09408	0.01051
5701.16541	0.01051
5699.23673	0.01052
5697.30806	0.01056
5695.37938	0.01059
5693.45070	0.01062
5691.52203	0.01064
5689.59335	0.01065
5687.66468	0.01066
5685.73600	0.01068
5683.80733	0.01071
5681.87865	0.01075
5679.94997	0.01077
5678.02130	0.01078
5676.09262	0.01081
5674.16395	0.01085
5672.23527	0.01086
5670.30660	0.01086
5668.37792	0.01088
5666.44924	0.01091
5664.52057	0.01093
5662.59189	0.01096
5660.66322	0.01099
5658.73454	0.01101
5656.80587	0.01104
5654.87719	0.01108
5652.94851	0.01112
5651.01984	0.01113
5649.09116	0.01113
5647.16249	0.01114
5645.23381	0.01115
5643.30514	0.01118
5641.37646	0.01120
5639.44778	0.01123
5637.51911	0.01126
5635.59043	0.01130
5633.66176	0.01133
5631.73308	0.01134
5629.80441	0.01136
5627.87573	0.01138
5625.94705	0.01140
5624.01838	0.01143
5622.08970	0.01146
5620.16103	0.01149
5618.23235	0.01151
5616.30368	0.01152
5614.37500	0.01154
5612.44632	0.01157
5610.51765	0.01160
5608.58897	0.01162
5606.66030	0.01163
5604.73162	0.01166
5602.80295	0.01169
5600.87427	0.01172
5598.94559	0.01175
5597.01692	0.01178
5595.08824	0.01181
5593.15957	0.01185
5591.23089	0.01188
5589.30222	0.01189
5587.37354	0.01190
5585.44486	0.01192
5583.51619	0.01196
5581.58751	0.01199
5579.65884	0.01201
5577.73016	0.01204
5575.80149	0.01206
5573.87281	0.01208
5571.94413	0.01210
5570.01546	0.01211
5568.08678	0.01212
5566.15811	0.01215
5564.22943	0.01220
5562.30076	0.01223
5560.37208	0.01225
5558.44340	0.01227
5556.51473	0.01229
5554.58605	0.01231
5552.65738	0.01233
5550.72870	0.01237
5548.80003	0.01240
5546.87135	0.01242
5544.94267	0.01242
5543.01400	0.01243
5541.08532	0.01246
5539.15665	0.01248
5537.22797	0.01250
5535.29930	0.01252
5533.37062	0.01256
5531.44194	0.01259
5529.51327	0.01262
5527.58459	0.01266
5525.65592	0.01271
5523.72724	0.01274
5521.79857	0.01276
5519.86989	0.01276
5517.94121	0.01276
5516.01254	0.01279
5514.08386	0.01281
5512.15519	0.01283
5510.22651	0.01286
5508.29784	0.01288
5506.36916	0.01291
5504.44048	0.01295
5502.51181	0.01301
5500.58313	0.01304
5498.65446	0.01306
5496.72578	0.01308
5494.79711	0.01311
5492.86843	0.01314
5490.93975	0.01315
5489.01108	0.01316
5487.08240	0.01317
5485.15373	0.01320
5483.22505	0.01323
5481.29638	0.01328
5479.36770	0.01331
5477.43902	0.01332
5475.51035	0.01333
5473.58167	0.01336
5471.65300	0.01341
5469.72432	0.01343
5467.79565	0.01344
5465.86697	0.01346
5463.93829	0.01350
5462.00962	0.01352
5460.08094	0.01353
5458.15227	0.01356
5456.22359	0.01359
5454.29492	0.01363
5452.36624	0.01366
5450.43756	0.01368
5448.50889	0.01371
5446.58021	0.01374
5444.65154	0.01376
5442.72286	0.01378
5440.79419	0.01382
5438.86551	0.01387
5436.93683	0.01389
5435.00816	0.01390
5433.07948	0.01393
5431.15081	0.01396
5429.22213	0.01398
5427.29346	0.01401
5425.36478	0.01405
5423.43610	0.01409
5421.50743	0.01411
5419.57875	0.01413
5417.65008	0.01415
5415.72140	0.01416
5413.79273	0.01418
5411.86405	0.01420
5409.93537	0.01423
5408.00670	0.01427
5406.07802	0.01431
5404.14935	0.01434
5402.22067	0.01436
5400.29200	0.01438
5398.36332	0.01441
5396.43464	0.01445
5394.50597	0.01448
5392.57729	0.01450
5390.64862	0.01453
5388.71994	0.01457
5386.79127	0.01459
5384.86259	0.01461
5382.93391	0.01463
5381.00524	0.01466
5379.07656	0.01470
5377.14789	0.01474
5375.21921	0.01477
5373.29054	0.01479
5371.36186	0.01480
5369.43318	0.01484
5367.50451	0.01487
5365.57583	0.01488
5363.64716	0.01491
5361.71848	0.01494
5359.78981	0.01498
5357.86113	0.01501
5355.93245	0.01505
5354.00378	0.01507
5352.07510	0.01510
5350.14643	0.01513
5348.21775	0.01516
5346.28908	0.01518
5344.36040	0.01519
5342.43172	0.01522
5340.50305	0.01525
5338.57437	0.01527
5336.64570	0.01531
5334.71702	0.01536
5332.78835	0.01538
5330.85967	0.01541
5328.93099	0.01543
5327.00232	0.01546
5325.07364	0.01549
5323.14497	0.01552
5321.21629	0.01554
5319.28762	0.01557
5317.35894	0.01559
5315.43026	0.01561
5313.50159	0.01565
5311.57291	0.01569
5309.64424	0.01573
5307.71556	0.01577
5305.78689	0.01579
5303.85821	0.01582
5301.92953	0.01585
5300.00086	0.01587
5298.07218	0.01590
5296.14351	0.01593
5294.21483	0.01596
5292.28616	0.01599
5290.35748	0.01600
5288.42880	0.01601
5286.50013	0.01605
5284.57145	0.01609
5282.64278	0.01612
5280.71410	0.01614
5278.78543	0.01617
5276.85675	0.01620
5274.92807	0.01623
5272.99940	0.01626
5271.07072	0.01628
5269.14205	0.01630
5267.21337	0.01633
5265.28470	0.01635
5263.35602	0.01638
5261.42734	0.01643
5259.49867	0.01649
5257.56999	0.01652
5255.64132	0.01653
5253.71264	0.01656
5251.78397	0.01659
5249.85529	0.01660
5247.92661	0.01662
5245.99794	0.01665
5244.06926	0.01667
5242.14059	0.01671
5240.21191	0.01677
5238.28324	0.01682
5236.35456	0.01684
5234.42588	0.01685
5232.49721	0.01689
5230.56853	0.01693
5228.63986	0.01695
5226.71118	0.01697
5224.78251	0.01701
5222.85383	0.01704
5220.92515	0.01708
5218.99648	0.01713
5217.06780	0.01717
5215.13913	0.01719
5213.21045	0.01721
5211.28178	0.01724
5209.35310	0.01728
5207.42442	0.01731
5205.49575	0.01732
5203.56707	0.01735
5201.63840	0.01739
5199.70972	0.01743
5197.78105	0.01747
5195.85237	0.01751
5193.92369	0.01753
5191.99502	0.01754
5190.06634	0.01757
5188.13767	0.01760
5186.20899	0.01763
5184.28032	0.01766
5182.35164	0.01770
5180.42296	0.01774
5178.49429	0.01778
5176.56561	0.01782
5174.63694	0.01785
5172.70826	0.01788
5170.77959	0.01792
5168.85091	0.01795
5166.92223	0.01796
5164.99356	0.01797
5163.06488	0.01800
5161.13621	0.01803
5159.20753	0.01806
5157.27886	0.01808
5155.35018	0.01813
5153.42150	0.01818
5151.49283	0.01824
5149.56415	0.01828
5147.63548	0.01830
5145.70680	0.01830
5143.77813	0.01832
5141.84945	0.01837
5139.92077	0.01841
5137.99210	0.01844
5136.06342	0.01847
5134.13475	0.01849
5132.20607	0.01851
5130.27740	0.01853
5128.34872	0.01857
5126.42004	0.01860
5124.49137	0.01864
5122.56269	0.01868
5120.63402	0.01871
5118.70534	0.01874
5116.77667	0.01876
5114.84799	0.01879
5112.91931	0.01882
5110.99064	0.01884
5109.06196	0.01886
5107.13329	0.01890
5105.20461	0.01895
5103.27594	0.01899
5101.34726	0.01903
5099.41858	0.01907
5097.48991	0.01910
5095.56123	0.01912
5093.63256	0.01914
5091.70388	0.01917
5089.77521	0.01919
5087.84653	0.01922
5085.91785	0.01927
5083.98918	0.01933
5082.06050	0.01937
5080.13183	0.01939
5078.20315	0.01942
5076.27448	0.01946
5074.34580	0.01950
5072.41712	0.01953
5070.48845	0.01954
5068.55977	0.01957
5066.63110	0.01961
5064.70242	0.01966
5062.77375	0.01969
5060.84507	0.01973
5058.91639	0.01976
5056.98772	0.01980
5055.05904	0.01982
5053.13037	0.01985
5051.20169	0.01987
5049.27302	0.01991
5047.34434	0.01997
5045.41566	0.02003
5043.48699	0.02007
5041.55831	0.02007
5039.62964	0.02009
5037.70096	0.02013
5035.77229	0.02016
5033.84361	0.02017
5031.91493	0.02019
5029.98626	0.02022
5028.05758	0.02028
5026.12891	0.02034
5024.20023	0.02039
5022.27156	0.02042
5020.34288	0.02045
5018.41420	0.02048
5016.48553	0.02051
5014.55685	0.02053
5012.62818	0.02056
5010.69950	0.02060
5008.77083	0.02064
5006.84215	0.02070
5004.91347	0.02074
5002.98480	0.02076
5001.05612	0.02076
4999.12745	0.02077
4997.19877	0.02080
4995.27010	0.02086
4993.34142	0.02092
4991.41274	0.02096
4989.48407	0.02099
4987.55539	0.02100
4985.62672	0.02102
4983.69804	0.02106
4981.76937	0.02110
4979.84069	0.02113
4977.91201	0.02117
4975.98334	0.02123
4974.05466	0.02128
4972.12599	0.02132
4970.19731	0.02134
4968.26864	0.02136
4966.33996	0.02139
4964.41128	0.02142
4962.48261	0.02146
4960.55393	0.02151
4958.62526	0.02156
4956.69658	0.02160
4954.76791	0.02165
4952.83923	0.02170
4950.91055	0.02173
4948.98188	0.02175
4947.05320	0.02177
4945.12453	0.02180
4943.19585	0.02183
4941.26718	0.02185
4939.33850	0.02190
4937.40982	0.02197
4935.48115	0.02202
4933.55247	0.02203
4931.62380	0.02204
4929.69512	0.02208
4927.76645	0.02212
4925.83777	0.02215
4923.90909	0.02218
4921.98042	0.02222
4920.05174	0.02227
4918.12307	0.02232
4916.19439	0.02234
4914.26572	0.02236
4912.33704	0.02239
4910.40836	0.02243
4908.47969	0.02248
4906.55101	0.02254
4904.62234	0.02259
4902.69366	0.02262
4900.76499	0.02266
4898.83631	0.02269
4896.90763	0.02273
4894.97896	0.02276
4893.05028	0.02277
4891.12161	0.02279
4889.19293	0.02281
4887.26426	0.02285
4885.33558	0.02288
4883.40690	0.02293
4881.47823	0.02298
4879.54955	0.02304
4877.62088	0.02308
4875.69220	0.02309
4873.76353	0.02310
4871.83485	0.02313
4869.90617	0.02319
4867.97750	0.02325
4866.04882	0.02328
4864.12015	0.02331
4862.19147	0.02334
4860.26280	0.02339
4858.33412	0.02343
4856.40544	0.02347
4854.47677	0.02350
4852.54809	0.02353
4850.61942	0.02358
4848.69074	0.02362
4846.76207	0.02366
4844.83339	0.02368
4842.90471	0.02371
4840.97604	0.02374
4839.04736	0.02379
4837.11869	0.02385
4835.19001	0.02391
4833.26134	0.02396
4831.33266	0.02399
4829.40398	0.02401
4827.47531	0.02403
4825.54663	0.02406
4823.61796	0.02410
4821.68928	0.02414
4819.76061	0.02418
4817.83193	0.02421
4815.90325	0.02424
4813.97458	0.02430
4812.04590	0.02433
4810.11723	0.02435
4808.18855	0.02438
4806.25988	0.02442
4804.33120	0.02445
4802.40252	0.02448
4800.47385	0.02453
4798.54517	0.02458
4796.61650	0.02463
4794.68782	0.02467
4792.75915	0.02473
4790.83047	0.02479
4788.90179	0.02482
4786.97312	0.02485
4785.04444	0.02487
4783.11577	0.02491
4781.18709	0.02496
4779.25842	0.02500
4777.32974	0.02504
4775.40106	0.02507
4773.47239	0.02511
4771.54371	0.02516
4769.61504	0.02520
4767.68636	0.02523
4765.75769	0.02526
4763.82901	0.02529
4761.90033	0.02534
4759.97166	0.02540
4758.04298	0.02544
4756.11431	0.02547
4754.18563	0.02551
4752.25696	0.02556
4750.32828	0.02560
4748.39960	0.02562
4746.47093	0.02565
4744.54225	0.02572
4742.61358	0.02578
4740.68490	0.02581
4738.75623	0.02583
4736.82755	0.02586
4734.89887	0.02591
4732.97020	0.02597
4731.04152	0.02602
4729.11285	0.02606
4727.18417	0.02611
4725.25550	0.02615
4723.32682	0.02618
4721.39814	0.02622
4719.46947	0.02627
4717.54079	0.02633
4715.61212	0.02637
4713.68344	0.02640
4711.75477	0.02644
4709.82609	0.02648
4707.89741	0.02654
4705.96874	0.02660
4704.04006	0.02665
4702.11139	0.02668
4700.18271	0.02669
4698.25404	0.02671
4696.32536	0.02676
4694.39668	0.02682
4692.46801	0.02687
4690.53933	0.02692
4688.61066	0.02697
4686.68198	0.02700
4684.75331	0.02704
4682.82463	0.02708
4680.89595	0.02712
4678.96728	0.02716
4677.03860	0.02720
4675.10993	0.02724
4673.18125	0.02728
4671.25258	0.02733
4669.32390	0.02737
4667.39522	0.02740
4665.46655	0.02745
4663.53787	0.02752
4661.60920	0.02757
4659.68052	0.02761
4657.75185	0.02766
4655.82317	0.02770
4653.89449	0.02772
4651.96582	0.02774
4650.03714	0.02778
4648.10847	0.02784
4646.17979	0.02789
4644.25112	0.02793
4642.32244	0.02798
4640.39376	0.02803
4638.46509	0.02807
4636.53641	0.02811
4634.60774	0.02816
4632.67906	0.02821
4630.75039	0.02826
4628.82171	0.02832
4626.89303	0.02837
4624.96436	0.02840
4623.03568	0.02843
4621.10701	0.02846
4619.17833	0.02850
4617.24966	0.02855
4615.32098	0.02863
4613.39230	0.02871
4611.46363	0.02877
4609.53495	0.02881
4607.60628	0.02883
4605.67760	0.02885
4603.74893	0.02888
4601.82025	0.02893
4599.89157	0.02899
4597.96290	0.02906
4596.03422	0.02912
4594.10555	0.02917
4592.17687	0.02922
4590.24820	0.02928
4588.31952	0.02933
4586.39084	0.02935
4584.46217	0.02937
4582.53349	0.02939
4580.60482	0.02942
4578.67614	0.02947
4576.74747	0.02955
4574.81879	0.02962
4572.89011	0.02968
4570.96144	0.02973
4569.03276	0.02976
4567.10409	0.02980
4565.17541	0.02984
4563.24674	0.02991
4561.31806	0.02999
4559.38938	0.03005
4557.46071	0.03008
4555.53203	0.03010
4553.60336	0.03014
4551.67468	0.03020
4549.74601	0.03026
4547.81733	0.03031
4545.88865	0.03034
4543.95998	0.03037
4542.03130	0.03041
4540.10263	0.03047
4538.17395	0.03054
4536.24528	0.03059
4534.31660	0.03062
4532.38792	0.03067
4530.45925	0.03073
4528.53057	0.03079
4526.60190	0.03084
4524.67322	0.03088
4522.74455	0.03094
4520.81587	0.03099
4518.88719	0.03104
4516.95852	0.03111
4515.02984	0.03116
4513.10117	0.03119
4511.17249	0.03122
4509.24382	0.03126
4507.31514	0.03132
4505.38646	0.03139
4503.45779	0.03146
4501.52911	0.03151
4499.60044	0.03157
4497.67176	0.03165
4495.74309	0.03170
4493.81441	0.03174
4491.88573	0.03178
4489.95706	0.03182
4488.02838	0.03186
4486.09971	0.03190
4484.17103	0.03194
4482.24236	0.03200
4480.31368	0.03207
4478.38500	0.03213
4476.45633	0.03219
4474.52765	0.03224
4472.59898	0.03228
4470.67030	0.03233
4468.74163	0.03238
4466.81295	0.03244
4464.88427	0.03250
4462.95560	0.03255
4461.02692	0.03261
4459.09825	0.03268
4457.16957	0.03273
4455.24090	0.03278
4453.31222	0.03282
4451.38354	0.03286
4449.45487	0.03288
4447.52619	0.03293
4445.59752	0.03302
4443.66884	0.03313
4441.74017	0.03321
4439.81149	0.03327
4437.88281	0.03332
4435.95414	0.03336
4434.02546	0.03340
4432.09679	0.03345
4430.16811	0.03351
4428.23944	0.03357
4426.31076	0.03366
4424.38208	0.03373
4422.45341	0.03378
4420.52473	0.03383
4418.59606	0.03388
4416.66738	0.03393
4414.73871	0.03397
4412.81003	0.03401
4410.88135	0.03407
4408.95268	0.03414
4407.02400	0.03420
4405.09533	0.03425
4403.16665	0.03432
4401.23798	0.03439
4399.30930	0.03444
4397.38062	0.03448
4395.45195	0.03455
4393.52327	0.03464
4391.59460	0.03471
4389.66592	0.03474
4387.73725	0.03477
4385.80857	0.03484
4383.87989	0.03494
4381.95122	0.03500
4380.02254	0.03505
4378.09387	0.03510
4376.16519	0.03516
4374.23652	0.03521
4372.30784	0.03526
4370.37916	0.03531
4368.45049	0.03538
4366.52181	0.03544
4364.59314	0.03550
4362.66446	0.03557
4360.73579	0.03564
4358.80711	0.03571
4356.87843	0.03579
4354.94976	0.03585
4353.02108	0.03591
4351.09241	0.03596
4349.16373	0.03601
4347.23506	0.03607
4345.30638	0.03614
4343.37770	0.03621
4341.44903	0.03626
4339.52035	0.03630
4337.59168	0.03634
4335.66300	0.03642
4333.73433	0.03650
4331.80565	0.03658
4329.87697	0.03665
4327.94830	0.03670
4326.01962	0.03674
4324.09095	0.03680
4322.16227	0.03688
4320.23360	0.03697
4318.30492	0.03705
4316.37624	0.03710
4314.44757	0.03714
4312.51889	0.03720
4310.59022	0.03728
4308.66154	0.03735
4306.73287	0.03739
4304.80419	0.03744
4302.87551	0.03752
4300.94684	0.03762
4299.01816	0.03770
4297.08949	0.03775
4295.16081	0.03780
4293.23214	0.03786
4291.30346	0.03793
4289.37478	0.03801
4287.44611	0.03808
4285.51743	0.03815
4283.58876	0.03825
4281.66008	0.03835
4279.73141	0.03842
4277.80273	0.03847
4275.87405	0.03854
4273.94538	0.03861
4272.01670	0.03866
4270.08803	0.03872
4268.15935	0.03879
4266.23068	0.03886
4264.30200	0.03892
4262.37332	0.03899
4260.44465	0.03908
4258.51597	0.03915
4256.58730	0.03920
4254.65862	0.03925
4252.72995	0.03933
4250.80127	0.03941
4248.87259	0.03949
4246.94392	0.03956
4245.01524	0.03964
4243.08657	0.03971
4241.15789	0.03978
4239.22922	0.03983
4237.30054	0.03988
4235.37186	0.03992
4233.44319	0.03999
4231.51451	0.04007
4229.58584	0.04014
4227.65716	0.04021
4225.72849	0.04026
4223.79981	0.04032
4221.87113	0.04040
4219.94246	0.04050
4218.01378	0.04059
4216.08511	0.04067
4214.15643	0.04074
4212.22776	0.04081
4210.29908	0.04089
4208.37040	0.04097
4206.44173	0.04104
4204.51305	0.04109
4202.58438	0.04115
4200.65570	0.04125
4198.72703	0.04135
4196.79835	0.04143
4194.86968	0.04148
4192.94100	0.04155
4191.01232	0.04163
4189.08365	0.04171
4187.15497	0.04178
4185.22630	0.04184
4183.29762	0.04191
4181.36895	0.04200
4179.44027	0.04207
4177.51159	0.04213
4175.58292	0.04219
4173.65424	0.04226
4171.72557	0.04233
4169.79689	0.04242
4167.86822	0.04251
4165.93954	0.04261
4164.01086	0.04272
4162.08219	0.04280
4160.15351	0.04286
4158.22484	0.04294
4156.29616	0.04301
4154.36749	0.04308
4152.43881	0.04317
4150.51013	0.04325
4148.58146	0.04330
4146.65278	0.04335
4144.72411	0.04341
4142.79543	0.04348
4140.86676	0.04356
4138.93808	0.04364
4137.00940	0.04372
4135.08073	0.04381
4133.15205	0.04391
4131.22338	0.04400
4129.29470	0.04410
4127.36603	0.04418
4125.43735	0.04424
4123.50867	0.04429
4121.58000	0.04436
4119.65132	0.04444
4117.72265	0.04454
4115.79397	0.04461
4113.86530	0.04467
4111.93662	0.04474
4110.00794	0.04482
4108.07927	0.04491
4106.15059	0.04499
4104.22192	0.04509
4102.29324	0.04519
4100.36457	0.04527
4098.43589	0.04535
4096.50721	0.04544
4094.57854	0.04555
4092.64986	0.04564
4090.72119	0.04570
4088.79251	0.04574
4086.86384	0.04580
4084.93516	0.04590
4083.00648	0.04603
4081.07781	0.04614
4079.14913	0.04624
4077.22046	0.04632
4075.29178	0.04639
4073.36311	0.04645
4071.43443	0.04653
4069.50575	0.04660
4067.57708	0.04667
4065.64840	0.04674
4063.71973	0.04683
4061.79105	0.04694
4059.86238	0.04702
4057.93370	0.04711
4056.00502	0.04719
4054.07635	0.04728
4052.14767	0.04737
4050.21900	0.04743
4048.29032	0.04750
4046.36165	0.04759
4044.43297	0.04768
4042.50429	0.04776
4040.57562	0.04784
4038.64694	0.04794
4036.71827	0.04804
4034.78959	0.04814
4032.86092	0.04824
4030.93224	0.04833
4029.00356	0.04842
4027.07489	0.04850
4025.14621	0.04856
4023.21754	0.04861
4021.28886	0.04869
4019.36019	0.04880
4017.43151	0.04890
4015.50283	0.04899
4013.57416	0.04908
4011.64548	0.04916
4009.71681	0.04924
4007.78813	0.04931
4005.85946	0.04939
4003.93078	0.04951
4002.00210	0.04964
4000.07343	0.04973
3998.14475	0.04979
3996.21608	0.04985
3994.28740	0.04994
3992.35873	0.05003
3990.43005	0.05014
3988.50137	0.05024
3986.57270	0.05032
3984.64402	0.05039
3982.71535	0.05048
3980.78667	0.05055
3978.85800	0.05064
3976.92932	0.05075
3975.00064	0.05087
3973.07197	0.05095
3971.14329	0.05102
3969.21462	0.05111
3967.28594	0.05121
3965.35727	0.05131
3963.42859	0.05141
3961.49991	0.05151
3959.57124	0.05160
3957.64256	0.05169
3955.71389	0.05178
3953.78521	0.05186
3951.85654	0.05193
3949.92786	0.05202
3947.99918	0.05211
3946.07051	0.05220
3944.14183	0.05227
3942.21316	0.05236
3940.28448	0.05249
3938.35581	0.05262
3936.42713	0.05271
3934.49845	0.05277
3932.56978	0.05283
3930.64110	0.05294
3928.71243	0.05305
3926.78375	0.05311
3924.85508	0.05318
3922.92640	0.05328
3920.99772	0.05337
3919.06905	0.05344
3917.14037	0.05353
3915.21170	0.05367
3913.28302	0.05380
3911.35435	0.05390
3909.42567	0.05399
3907.49699	0.05402
3905.56832	0.05397
3903.63964	0.05398
3901.71097	0.05406
3899.78229	0.05420
3897.85362	0.05440
3895.92494	0.05462
3893.99626	0.05474
3892.06759	0.05480
3890.13891	0.05486
3888.21024	0.05490
3886.28156	0.05491
3884.35289	0.05501
3882.42421	0.05514
3880.49553	0.05525
3878.56686	0.05541
3876.63818	0.05557
3874.70951	0.05566
3872.78083	0.05570
3870.85216	0.05571
3868.92348	0.05581
3866.99480	0.05594
3865.06613	0.05603
3863.13745	0.05616
3861.20878	0.05634
3859.28010	0.05646
3857.35143	0.05641
3855.42275	0.05621
3853.49407	0.05617
3851.56540	0.05648
3849.63672	0.05687
3847.70805	0.05710
3845.77937	0.05716
3843.85070	0.05716
3841.92202	0.05718
3839.99334	0.05720
3838.06467	0.05727
3836.13599	0.05746
3834.20732	0.05765
3832.27864	0.05779
3830.34997	0.05794
3828.42129	0.05806
3826.49261	0.05814
3824.56394	0.05818
3822.63526	0.05816
3820.70659	0.05821
3818.77791	0.05835
3816.84924	0.05849
3814.92056	0.05867
3812.99188	0.05888
3811.06321	0.05901
3809.13453	0.05904
3807.20586	0.05906
3805.27718	0.05913
3803.34851	0.05916
3801.41983	0.05923
3799.49115	0.05942
3797.56248	0.05962
3795.63380	0.05977
3793.70513	0.05992
3791.77645	0.06004
3789.84778	0.06015
3787.91910	0.06025
3785.99042	0.06034
3784.06175	0.06043
3782.13307	0.06051
3780.20440	0.06058
3778.27572	0.06069
3776.34705	0.06084
3774.41837	0.06095
3772.48969	0.06100
3770.56102	0.06105
3768.63234	0.06114
3766.70367	0.06126
3764.77499	0.06139
3762.84632	0.06150
3760.91764	0.06155
3758.98896	0.06160
3757.06029	0.06171
3755.13161	0.06176
3753.20294	0.06171
3751.27426	0.06167
3749.34559	0.06176
3747.41691	0.06181
3745.48823	0.06177
3743.55956	0.06192
3741.63088	0.06229
3739.70221	0.06249
3737.77353	0.06246
3735.84486	0.06246
3733.91618	0.06260
3731.98750	0.06282
3730.05883	0.06302
3728.13015	0.06316
3726.20148	0.06326
3724.27280	0.06337
3722.34413	0.06348
3720.41545	0.06358
3718.48677	0.06368
3716.55810	0.06377
3714.62942	0.06378
3712.70075	0.06375
3710.77207	0.06382
3708.84340	0.06399
3706.91472	0.06414
3704.98604	0.06420
3703.05737	0.06420
3701.12869	0.06422
3699.20002	0.06433
3697.27134	0.06444
3695.34267	0.06451
3693.41399	0.06451
3691.48531	0.06446
3689.55664	0.06444
3687.62796	0.06453
3685.69929	0.06467
3683.77061	0.06479
3681.84194	0.06483
3679.91326	0.06477
3677.98458	0.06461
3676.05591	0.06449
3674.12723	0.06455
3672.19856	0.06465
3670.26988	0.06469
3668.34121	0.06482
3666.41253	0.06503
3664.48385	0.06518
3662.55518	0.06525
3660.62650	0.06525
3658.69783	0.06519
3656.76915	0.06514
3654.84048	0.06518
3652.91180	0.06512
3650.98312	0.06489
3649.05445	0.06474
3647.12577	0.06486
3645.19710	0.06515
3643.26842	0.06542
3641.33975	0.06559
3639.41107	0.06570
3637.48239	0.06579
3635.55372	0.06585
3633.62504	0.06587
3631.69637	0.06578
3629.76769	0.06570
3627.83902	0.06582
3625.91034	0.06606
3623.98166	0.06620
3622.05299	0.06623
3620.12431	0.06623
3618.19564	0.06630
3616.26696	0.06640
3614.33829	0.06643
3612.40961	0.06643
3610.48093	0.06645
3608.55226	0.06655
3606.62358	0.06673
3604.69491	0.06688
3602.76623	0.06694
3600.83756	0.06699
3598.90888	0.06709
3596.98020	0.06716
3595.05153	0.06718
3593.12285	0.06723
3591.19418	0.06726
3589.26550	0.06725
3587.33683	0.06732
3585.40815	0.06749
3583.47947	0.06766
3581.55080	0.06775
3579.62212	0.06782
3577.69345	0.06790
3575.76477	0.06799
3573.83610	0.06806
3571.90742	0.06811
3569.97874	0.06812
3568.05007	0.06810
3566.12139	0.06817
3564.19272	0.06833
3562.26404	0.06848
3560.33537	0.06861
3558.40669	0.06871
3556.47801	0.06876
3554.54934	0.06878
3552.62066	0.06884
3550.69199	0.06893
3548.76331	0.06897
3546.83464	0.06899
3544.90596	0.06907
3542.97728	0.06921
3541.04861	0.06930
3539.11993	0.06934
3537.19126	0.06937
3535.26258	0.06944
3533.33391	0.06950
3531.40523	0.06952
3529.47655	0.06952
3527.54788	0.06954
3525.61920	0.06958
3523.69053	0.06963
3521.76185	0.06967
3519.83318	0.06972
3517.90450	0.06978
3515.97582	0.06982
3514.04715	0.06984
3512.11847	0.06984
3510.18980	0.06985
3508.26112	0.06987
3506.33245	0.06989
3504.40377	0.06990
3502.47509	0.06991
3500.54642	0.06992
3498.61774	0.06992
3496.68907	0.06994
3494.76039	0.06999
3492.83172	0.07001
3490.90304	0.06999
3488.97436	0.06999
3487.04569	0.07005
3485.11701	0.07008
3483.18834	0.07010
3481.25966	0.07015
3479.33099	0.07023
3477.40231	0.07030
3475.47363	0.07035
3473.54496	0.07043
3471.61628	0.07051
3469.68761	0.07059
3467.75893	0.07067
3465.83026	0.07075
3463.90158	0.07082
3461.97290	0.07092
3460.04423	0.07104
3458.11555	0.07116
3456.18688	0.07127
3454.25820	0.07137
3452.32953	0.07147
3450.40085	0.07158
3448.47217	0.07169
3446.54350	0.07179
3444.61482	0.07187
3442.68615	0.07196
3440.75747	0.07209
3438.82880	0.07227
3436.90012	0.07246
3434.97144	0.07263
3433.04277	0.07277
3431.11409	0.07296
3429.18542	0.07320
3427.25674	0.07346
3425.32807	0.07369
3423.39939	0.07389
3421.47071	0.07407
3419.54204	0.07427
3417.61336	0.07447
3415.68469	0.07463
3413.75601	0.07478
3411.82734	0.07492
3409.89866	0.07508
3407.96998	0.07523
3406.04131	0.07538
3404.11263	0.07551
3402.18396	0.07567
3400.25528	0.07584
3398.32661	0.07600
3396.39793	0.07615
3394.46925	0.07630
3392.54058	0.07646
3390.61190	0.07661
3388.68323	0.07675
3386.75455	0.07689
3384.82588	0.07704
3382.89720	0.07718
3380.96852	0.07731
3379.03985	0.07745
3377.11117	0.07761
3375.18250	0.07777
3373.25382	0.07790
3371.32515	0.07802
3369.39647	0.07816
3367.46779	0.07829
3365.53912	0.07843
3363.61044	0.07859
3361.68177	0.07874
3359.75309	0.07887
3357.82442	0.07900
3355.89574	0.07914
3353.96706	0.07928
3352.03839	0.07943
3350.10971	0.07958
3348.18104	0.07972
3346.25236	0.07984
3344.32369	0.07994
3342.39501	0.08006
3340.46633	0.08019
3338.53766	0.08033
3336.60898	0.08050
3334.68031	0.08069
3332.75163	0.08087
3330.82296	0.08100
3328.89428	0.08112
3326.96560	0.08125
3325.03693	0.08139
3323.10825	0.08153
3321.17958	0.08166
3319.25090	0.08182
3317.32223	0.08199
3315.39355	0.08213
3313.46487	0.08226
3311.53620	0.08240
3309.60752	0.08258
3307.67885	0.08277
3305.75017	0.08293
3303.82150	0.08309
3301.89282	0.08324
3299.96414	0.08338
3298.03547	0.08353
3296.10679	0.08367
3294.17812	0.08381
3292.24944	0.08397
3290.32077	0.08413
3288.39209	0.08429
3286.46341	0.08445
3284.53474	0.08463
3282.60606	0.08478
3280.67739	0.08492
3278.74871	0.08507
3276.82004	0.08524
3274.89136	0.08541
3272.96268	0.08558
3271.03401	0.08576
3269.10533	0.08594
3267.17666	0.08614
3265.24798	0.08632
3263.31931	0.08646
3261.39063	0.08659
3259.46195	0.08676
3257.53328	0.08694
3255.60460	0.08710
3253.67593	0.08726
3251.74725	0.08741
3249.81858	0.08757
3247.88990	0.08774
3245.96122	0.08792
3244.03255	0.08811
3242.10387	0.08828
3240.17520	0.08843
3238.24652	0.08856
3236.31785	0.08866
3234.38917	0.08880
3232.46049	0.08899
3230.53182	0.08917
3228.60314	0.08932
3226.67447	0.08947
3224.74579	0.08964
3222.81712	0.08982
3220.88844	0.08999
3218.95976	0.09014
3217.03109	0.09029
3215.10241	0.09044
3213.17374	0.09058
3211.24506	0.09075
3209.31639	0.09094
3207.38771	0.09112
3205.45903	0.09126
3203.53036	0.09141
3201.60168	0.09159
3199.67301	0.09178
3197.74433	0.09196
3195.81566	0.09216
3193.88698	0.09235
3191.95830	0.09251
3190.02963	0.09267
3188.10095	0.09284
3186.17228	0.09303
3184.24360	0.09325
3182.31493	0.09345
3180.38625	0.09361
3178.45757	0.09376
3176.52890	0.09393
3174.60022	0.09412
3172.67155	0.09430
3170.74287	0.09447
3168.81420	0.09464
3166.88552	0.09482
3164.95684	0.09499
3163.02817	0.09516
3161.09949	0.09533
3159.17082	0.09547
3157.24214	0.09563
3155.31347	0.09580
3153.38479	0.09594
3151.45611	0.09608
3149.52744	0.09626
3147.59876	0.09646
3145.67009	0.09666
3143.74141	0.09686
3141.81274	0.09704
3139.88406	0.09718
3137.95538	0.09730
3136.02671	0.09744
3134.09803	0.09761
3132.16936	0.09778
3130.24068	0.09793
3128.31201	0.09808
3126.38333	0.09823
3124.45465	0.09841
3122.52598	0.09860
3120.59730	0.09880
3118.66863	0.09895
3116.73995	0.09908
3114.81128	0.09923
3112.88260	0.09942
3110.95392	0.09961
3109.02525	0.09981
3107.09657	0.09999
3105.16790	0.10015
3103.23922	0.10029
3101.31055	0.10043
3099.38187	0.10057
3097.45319	0.10074
3095.52452	0.10092
3093.59584	0.10107
3091.66717	0.10122
3089.73849	0.10138
3087.80982	0.10155
3085.88114	0.10172
3083.95246	0.10188
3082.02379	0.10204
3080.09511	0.10219
3078.16644	0.10235
3076.23776	0.10253
3074.30909	0.10273
3072.38041	0.10290
3070.45173	0.10304
3068.52306	0.10319
3066.59438	0.10333
3064.66571	0.10348
3062.73703	0.10365
3060.80836	0.10382
3058.87968	0.10401
3056.95100	0.10420
3055.02233	0.10433
3053.09365	0.10443
3051.16498	0.10457
3049.23630	0.10476
3047.30763	0.10494
3045.37895	0.10511
3043.45027	0.10528
3041.52160	0.10543
3039.59292	0.10556
3037.66425	0.10569
3035.73557	0.10585
3033.80690	0.10603
3031.87822	0.10618
3029.94954	0.10630
3028.02087	0.10645
3026.09219	0.10663
3024.16352	0.10682
3022.23484	0.10700
3020.30617	0.10717
3018.37749	0.10731
3016.44881	0.10743
3014.52014	0.10756
3012.59146	0.10770
3010.66279	0.10786
3008.73411	0.10802
3006.80544	0.10818
3004.87676	0.10835
3002.94808	0.10851
3001.01941	0.10867
2999.09073	0.10883
2997.16206	0.10895
2995.23338	0.10905
2993.30471	0.10919
2991.37603	0.10936
2989.44735	0.10951
2987.51868	0.10963
2985.59000	0.10973
2983.66133	0.10981
2981.73265	0.10988
2979.80398	0.10995
2977.87530	0.11000
2975.94662	0.11004
2974.01795	0.11007
2972.08927	0.11007
2970.16060	0.11001
2968.23192	0.10994
2966.30325	0.10993
2964.37457	0.11002
2962.44589	0.11015
2960.51722	0.11030
2958.58854	0.11048
2956.65987	0.11066
2954.73119	0.11087
2952.80252	0.11108
2950.87384	0.11128
2948.94516	0.11145
2947.01649	0.11162
2945.08781	0.11173
2943.15914	0.11179
2941.23046	0.11180
2939.30179	0.11180
2937.37311	0.11181
2935.44443	0.11183
2933.51576	0.11183
2931.58708	0.11179
2929.65841	0.11173
2927.72973	0.11168
2925.80106	0.11163
2923.87238	0.11161
2921.94370	0.11164
2920.01503	0.11173
2918.08635	0.11193
2916.15768	0.11228
2914.22900	0.11278
2912.30033	0.11333
2910.37165	0.11382
2908.44297	0.11424
2906.51430	0.11459
2904.58562	0.11486
2902.65695	0.11510
2900.72827	0.11534
2898.79960	0.11556
2896.87092	0.11578
2894.94224	0.11602
2893.01357	0.11629
2891.08489	0.11652
2889.15622	0.11673
2887.22754	0.11695
2885.29887	0.11713
2883.37019	0.11730
2881.44151	0.11749
2879.51284	0.11766
2877.58416	0.11778
2875.65549	0.11788
2873.72681	0.11801
2871.79814	0.11816
2869.86946	0.11831
2867.94078	0.11848
2866.01211	0.11863
2864.08343	0.11875
2862.15476	0.11882
2860.22608	0.11885
2858.29741	0.11883
2856.36873	0.11877
2854.44005	0.11871
2852.51138	0.11869
2850.58270	0.11879
2848.65403	0.11912
2846.72535	0.11967
2844.79668	0.12025
2842.86800	0.12074
2840.93932	0.12109
2839.01065	0.12136
2837.08197	0.12163
2835.15330	0.12189
2833.22462	0.12210
2831.29595	0.12230
2829.36727	0.12253
2827.43859	0.12273
2825.50992	0.12291
2823.58124	0.12307
2821.65257	0.12323
2819.72389	0.12340
2817.79522	0.12358
2815.86654	0.12379
2813.93786	0.12398
2812.00919	0.12414
2810.08051	0.12429
2808.15184	0.12445
2806.22316	0.12461
2804.29449	0.12479
2802.36581	0.12496
2800.43713	0.12509
2798.50846	0.12520
2796.57978	0.12535
2794.65111	0.12553
2792.72243	0.12573
2790.79376	0.12592
2788.86508	0.12609
2786.93640	0.12625
2785.00773	0.12643
2783.07905	0.12660
2781.15038	0.12676
2779.22170	0.12689
2777.29303	0.12701
2775.36435	0.12716
2773.43567	0.12734
2771.50700	0.12752
2769.57832	0.12767
2767.64965	0.12782
2765.72097	0.12799
2763.79230	0.12814
2761.86362	0.12828
2759.93494	0.12842
2758.00627	0.12857
2756.07759	0.12870
2754.14892	0.12885
2752.22024	0.12903
2750.29157	0.12919
2748.36289	0.12935
2746.43421	0.12952
2744.50554	0.12971
2742.57686	0.12988
2740.64819	0.13002
2738.71951	0.13013
2736.79084	0.13025
2734.86216	0.13040
2732.93348	0.13057
2731.00481	0.13072
2729.07613	0.13085
2727.14746	0.13101
2725.21878	0.13116
2723.29011	0.13129
2721.36143	0.13142
2719.43275	0.13161
2717.50408	0.13182
2715.57540	0.13199
2713.64673	0.13213
2711.71805	0.13229
2709.78938	0.13243
2707.86070	0.13252
2705.93202	0.13263
2704.00335	0.13278
2702.07467	0.13295
2700.14600	0.13308
2698.21732	0.13319
2696.28865	0.13333
2694.35997	0.13349
2692.43129	0.13366
2690.50262	0.13383
2688.57394	0.13399
2686.64527	0.13413
2684.71659	0.13428
2682.78792	0.13442
2680.85924	0.13456
2678.93056	0.13469
2677.00189	0.13481
2675.07321	0.13492
2673.14454	0.13506
2671.21586	0.13526
2669.28719	0.13545
2667.35851	0.13559
2665.42983	0.13570
2663.50116	0.13581
2661.57248	0.13596
2659.64381	0.13612
2657.71513	0.13629
2655.78646	0.13649
2653.85778	0.13667
2651.92910	0.13683
2650.00043	0.13697
2648.07175	0.13711
2646.14308	0.13725
2644.21440	0.13735
2642.28573	0.13749
2640.35705	0.13770
2638.42837	0.13791
2636.49970	0.13808
2634.57102	0.13821
2632.64235	0.13835
2630.71367	0.13851
2628.78500	0.13867
2626.85632	0.13881
2624.92764	0.13893
2622.99897	0.13907
2621.07029	0.13924
2619.14162	0.13943
2617.21294	0.13963
2615.28427	0.13980
2613.35559	0.13996
2611.42691	0.14011
2609.49824	0.14025
2607.56956	0.14040
2605.64089	0.14056
2603.71221	0.14070
2601.78354	0.14085
2599.85486	0.14103
2597.92618	0.14117
2595.99751	0.14127
2594.06883	0.14141
2592.14016	0.14159
2590.21148	0.14179
2588.28281	0.14195
2586.35413	0.14209
2584.42545	0.14224
2582.49678	0.14241
2580.56810	0.14255
2578.63943	0.14268
2576.71075	0.14281
2574.78208	0.14297
2572.85340	0.14316
2570.92472	0.14334
2568.99605	0.14348
2567.06737	0.14358
2565.13870	0.14372
2563.21002	0.14389
2561.28135	0.14406
2559.35267	0.14421
2557.42399	0.14437
2555.49532	0.14454
2553.56664	0.14466
2551.63797	0.14474
2549.70929	0.14485
2547.78062	0.14502
2545.85194	0.14523
2543.92326	0.14539
2541.99459	0.14551
2540.06591	0.14563
2538.13724	0.14576
2536.20856	0.14592
2534.27989	0.14607
2532.35121	0.14621
2530.42253	0.14632
2528.49386	0.14646
2526.56518	0.14663
2524.63651	0.14679
2522.70783	0.14696
2520.77916	0.14712
2518.85048	0.14727
2516.92181	0.14741
2514.99313	0.14754
2513.06445	0.14769
2511.13578	0.14786
2509.20710	0.14802
2507.27843	0.14817
2505.34975	0.14835
2503.42108	0.14854
2501.49240	0.14871
2499.56372	0.14886
2497.63505	0.14902
2495.70637	0.14920
2493.77770	0.14937
2491.84902	0.14952
2489.92035	0.14967
2487.99167	0.14983
2486.06299	0.14997
2484.13432	0.15012
2482.20564	0.15032
2480.27697	0.15052
2478.34829	0.15071
2476.41962	0.15086
2474.49094	0.15101
2472.56226	0.15115
2470.63359	0.15130
2468.70491	0.15144
2466.77624	0.15159
2464.84756	0.15177
2462.91889	0.15196
2460.99021	0.15213
2459.06153	0.15227
2457.13286	0.15239
2455.20418	0.15253
2453.27551	0.15269
2451.34683	0.15283
2449.41816	0.15295
2447.48948	0.15306
2445.56080	0.15323
2443.63213	0.15343
2441.70345	0.15362
2439.77478	0.15378
2437.84610	0.15392
2435.91743	0.15406
2433.98875	0.15421
2432.06007	0.15438
2430.13140	0.15457
2428.20272	0.15472
2426.27405	0.15484
2424.34537	0.15494
2422.41670	0.15509
2420.48802	0.15525
2418.55934	0.15539
2416.63067	0.15554
2414.70199	0.15569
2412.77332	0.15582
2410.84464	0.15593
2408.91597	0.15604
2406.98729	0.15615
2405.05861	0.15631
2403.12994	0.15650
2401.20126	0.15668
2399.27259	0.15684
2397.34391	0.15697
2395.41524	0.15712
2393.48656	0.15728
2391.55788	0.15741
2389.62921	0.15750
2387.70053	0.15757
2385.77186	0.15766
2383.84318	0.15778
2381.91451	0.15790
2379.98583	0.15794
2378.05715	0.15793
2376.12848	0.15793
2374.19980	0.15794
2372.27113	0.15796
2370.34245	0.15798
2368.41378	0.15798
2366.48510	0.15798
2364.55642	0.15801
2362.62775	0.15803
2360.69907	0.15807
2358.77040	0.15816
2356.84172	0.15828
2354.91305	0.15832
2352.98437	0.15825
2351.05569	0.15798
2349.12702	0.15733
2347.19834	0.15617
2345.26967	0.15472
2343.34099	0.15354
2341.41232	0.15338
2339.48364	0.15472
2337.55496	0.15707
2335.62629	0.15920
2333.69761	0.16039
2331.76894	0.16085
2329.84026	0.16107
2327.91159	0.16128
2325.98291	0.16152
2324.05423	0.16179
2322.12556	0.16207
2320.19688	0.16231
2318.26821	0.16254
2316.33953	0.16276
2314.41086	0.16295
2312.48218	0.16313
2310.55350	0.16332
2308.62483	0.16352
2306.69615	0.16373
2304.76748	0.16392
2302.83880	0.16405
2300.91013	0.16418
2298.98145	0.16435
2297.05277	0.16452
2295.12410	0.16468
2293.19542	0.16482
2291.26675	0.16498
2289.33807	0.16513
2287.40940	0.16525
2285.48072	0.16534
2283.55204	0.16549
2281.62337	0.16569
2279.69469	0.16586
2277.76602	0.16599
2275.83734	0.16611
2273.90867	0.16627
2271.97999	0.16647
2270.05131	0.16665
2268.12264	0.16680
2266.19396	0.16692
2264.26529	0.16706
2262.33661	0.16724
2260.40794	0.16742
2258.47926	0.16758
2256.55058	0.16775
2254.62191	0.16793
2252.69323	0.16810
2250.76456	0.16828
2248.83588	0.16844
2246.90721	0.16860
2244.97853	0.16878
2243.04985	0.16894
2241.12118	0.16903
2239.19250	0.16912
2237.26383	0.16926
2235.33515	0.16944
2233.40648	0.16961
2231.47780	0.16979
2229.54912	0.16997
2227.62045	0.17016
2225.69177	0.17034
2223.76310	0.17048
2221.83442	0.17059
2219.90575	0.17071
2217.97707	0.17088
2216.04839	0.17106
2214.11972	0.17120
2212.19104	0.17130
2210.26237	0.17141
2208.33369	0.17154
2206.40502	0.17168
2204.47634	0.17183
2202.54766	0.17198
2200.61899	0.17214
2198.69031	0.17230
2196.76164	0.17245
2194.83296	0.17258
2192.90429	0.17270
2190.97561	0.17283
2189.04693	0.17300
2187.11826	0.17316
2185.18958	0.17329
2183.26091	0.17343
2181.33223	0.17360
2179.40356	0.17376
2177.47488	0.17387
2175.54620	0.17400
2173.61753	0.17414
2171.68885	0.17425
2169.76018	0.17434
2167.83150	0.17446
2165.90283	0.17464
2163.97415	0.17484
2162.04547	0.17500
2160.11680	0.17516
2158.18812	0.17531
2156.25945	0.17545
2154.33077	0.17557
2152.40210	0.17571
2150.47342	0.17588
2148.54474	0.17604
2146.61607	0.17617
2144.68739	0.17630
2142.75872	0.17642
2140.83004	0.17654
2138.90137	0.17666
2136.97269	0.17681
2135.04401	0.17700
2133.11534	0.17719
2131.18666	0.17734
2129.25799	0.17745
2127.32931	0.17759
2125.40064	0.17778
2123.47196	0.17798
2121.54328	0.17811
2119.61461	0.17820
2117.68593	0.17833
2115.75726	0.17851
2113.82858	0.17869
2111.89991	0.17882
2109.97123	0.17892
2108.04255	0.17901
2106.11388	0.17912
2104.18520	0.17928
2102.25653	0.17947
2100.32785	0.17967
2098.39918	0.17983
2096.47050	0.17994
2094.54182	0.18004
2092.61315	0.18017
2090.68447	0.18033
2088.75580	0.18049
2086.82712	0.18065
2084.89845	0.18081
2082.96977	0.18095
2081.04109	0.18105
2079.11242	0.18115
2077.18374	0.18129
2075.25507	0.18148
2073.32639	0.18166
2071.39772	0.18181
2069.46904	0.18193
2067.54036	0.18206
2065.61169	0.18222
2063.68301	0.18235
2061.75434	0.18246
2059.82566	0.18258
2057.89699	0.18273
2055.96831	0.18288
2054.03963	0.18303
2052.11096	0.18319
2050.18228	0.18335
2048.25361	0.18350
2046.32493	0.18361
2044.39626	0.18371
2042.46758	0.18382
2040.53890	0.18396
2038.61023	0.18412
2036.68155	0.18429
2034.75288	0.18445
2032.82420	0.18460
2030.89553	0.18473
2028.96685	0.18484
2027.03817	0.18493
2025.10950	0.18504
2023.18082	0.18520
2021.25215	0.18538
2019.32347	0.18553
2017.39480	0.18564
2015.46612	0.18577
2013.53744	0.18592
2011.60877	0.18604
2009.68009	0.18618
2007.75142	0.18635
2005.82274	0.18652
2003.89407	0.18663
2001.96539	0.18675
2000.03671	0.18689
1998.10804	0.18702
1996.17936	0.18715
1994.25069	0.18725
1992.32201	0.18735
1990.39334	0.18748
1988.46466	0.18762
1986.53598	0.18772
1984.60731	0.18783
1982.67863	0.18797
1980.74996	0.18811
1978.82128	0.18821
1976.89261	0.18827
1974.96393	0.18834
1973.03525	0.18845
1971.10658	0.18857
1969.17790	0.18867
1967.24923	0.18879
1965.32055	0.18894
1963.39188	0.18905
1961.46320	0.18916
1959.53452	0.18935
1957.60585	0.18950
1955.67717	0.18957
1953.74850	0.18966
1951.81982	0.18982
1949.89115	0.18998
1947.96247	0.19010
1946.03379	0.19018
1944.10512	0.19023
1942.17644	0.19033
1940.24777	0.19057
1938.31909	0.19080
1936.39042	0.19095
1934.46174	0.19109
1932.53306	0.19123
1930.60439	0.19134
1928.67571	0.19145
1926.74704	0.19159
1924.81836	0.19169
1922.88969	0.19178
1920.96101	0.19186
1919.03233	0.19193
1917.10366	0.19210
1915.17498	0.19236
1913.24631	0.19253
1911.31763	0.19258
1909.38896	0.19268
1907.46028	0.19289
1905.53160	0.19309
1903.60293	0.19323
1901.67425	0.19334
1899.74558	0.19342
1897.81690	0.19350
1895.88823	0.19359
1893.95955	0.19369
1892.03087	0.19374
1890.10220	0.19380
1888.17352	0.19396
1886.24485	0.19415
1884.31617	0.19430
1882.38750	0.19443
1880.45882	0.19457
1878.53014	0.19471
1876.60147	0.19483
1874.67279	0.19491
1872.74412	0.19492
1870.81544	0.19483
1868.88677	0.19482
1866.95809	0.19508
1865.02941	0.19548
1863.10074	0.19580
1861.17206	0.19599
1859.24339	0.19611
1857.31471	0.19618
1855.38604	0.19627
1853.45736	0.19643
1851.52868	0.19658
1849.60001	0.19666
1847.67133	0.19664
1845.74266	0.19655
1843.81398	0.19664
1841.88531	0.19700
1839.95663	0.19734
1838.02795	0.19751
1836.09928	0.19764
1834.17060	0.19775
1832.24193	0.19775
1830.31325	0.19774
1828.38458	0.19786
1826.45590	0.19802
1824.52722	0.19826
1822.59855	0.19860
1820.66987	0.19888
1818.74120	0.19899
1816.81252	0.19903
1814.88385	0.19905
1812.95517	0.19907
1811.02649	0.19914
1809.09782	0.19933
1807.16914	0.19953
1805.24047	0.19962
1803.31179	0.19959
1801.38312	0.19959
1799.45444	0.19973
1797.52576	0.19992
1795.59709	0.19996
1793.66841	0.19987
1791.73974	0.19993
1789.81106	0.20022
1787.88239	0.20044
1785.95371	0.20046
1784.02503	0.20051
1782.09636	0.20066
1780.16768	0.20080
1778.23901	0.20091
1776.31033	0.20086
1774.38166	0.20063
1772.45298	0.20044
1770.52430	0.20048
1768.59563	0.20070
1766.66695	0.20095
1764.73828	0.20105
1762.80960	0.20100
1760.88093	0.20103
1758.95225	0.20110
1757.02357	0.20113
1755.09490	0.20109
1753.16622	0.20083
1751.23755	0.20046
1749.30887	0.20035
1747.38020	0.20047
1745.45152	0.20054
1743.52284	0.20048
1741.59417	0.20033
1739.66549	0.20021
1737.73682	0.20011
1735.80814	0.19979
1733.87947	0.19958
1731.95079	0.19987
1730.02211	0.20032
1728.09344	0.20064
1726.16476	0.20080
1724.23609	0.20085
1722.30741	0.20080
1720.37874	0.20051
1718.45006	0.20015
1716.52138	0.20021
1714.59271	0.20070
1712.66403	0.20118
1710.73536	0.20147
1708.80668	0.20152
1706.87801	0.20139
1704.94933	0.20129
1703.02065	0.20107
1701.09198	0.20073
1699.16330	0.20078
1697.23463	0.20111
1695.30595	0.20144
1693.37728	0.20179
1691.44860	0.20192
1689.51992	0.20180
1687.59125	0.20159
1685.66257	0.20126
1683.73390	0.20115
1681.80522	0.20150
1679.87655	0.20188
1677.94787	0.20188
1676.01919	0.20166
1674.09052	0.20163
1672.16184	0.20173
1670.23317	0.20177
1668.30449	0.20202
1666.37582	0.20234
1664.44714	0.20232
1662.51846	0.20221
1660.58979	0.20230
1658.66111	0.20232
1656.73244	0.20192
1654.80376	0.20117
1652.87509	0.20089
1650.94641	0.20138
1649.01773	0.20176
1647.08906	0.20179
1645.16038	0.20203
1643.23171	0.20241
1641.30303	0.20258
1639.37436	0.20244
1637.44568	0.20212
1635.51700	0.20204
1633.58833	0.20236
1631.65965	0.20266
1629.73098	0.20265
1627.80230	0.20248
1625.87363	0.20225
1623.94495	0.20191
1622.01627	0.20163
1620.08760	0.20153
1618.15892	0.20160
1616.23025	0.20208
1614.30157	0.20293
1612.37290	0.20360
1610.44422	0.20389
1608.51554	0.20404
1606.58687	0.20429
1604.65819	0.20461
1602.72952	0.20487
1600.80084	0.20507
1598.87217	0.20521
1596.94349	0.20529
1595.01481	0.20541
1593.08614	0.20563
1591.15746	0.20584
1589.22879	0.20597
1587.30011	0.20606
1585.37144	0.20618
1583.44276	0.20633
1581.51408	0.20647
1579.58541	0.20645
1577.65673	0.20624
1575.72806	0.20626
1573.79938	0.20662
1571.87071	0.20680
1569.94203	0.20679
1568.01335	0.20696
1566.08468	0.20721
1564.15600	0.20728
1562.22733	0.20695
1560.29865	0.20637
1558.36998	0.20628
1556.44130	0.20686
1554.51262	0.20748
1552.58395	0.20782
1550.65527	0.20799
1548.72660	0.20810
1546.79792	0.20806
1544.86925	0.20780
1542.94057	0.20747
1541.01189	0.20734
1539.08322	0.20767
1537.15454	0.20823
1535.22587	0.20845
1533.29719	0.20844
1531.36852	0.20862
1529.43984	0.20878
1527.51116	0.20869
1525.58249	0.20845
1523.65381	0.20807
1521.72514	0.20780
1519.79646	0.20802
1517.86779	0.20840
1515.93911	0.20865
1514.01043	0.20883
1512.08176	0.20885
1510.15308	0.20856
1508.22441	0.20809
1506.29573	0.20805
1504.36706	0.20864
1502.43838	0.20914
1500.50970	0.20910
1498.58103	0.20884
1496.65235	0.20881
1494.72368	0.20898
1492.79500	0.20892
1490.86633	0.20858
1488.93765	0.20837
1487.00897	0.20842
1485.08030	0.20845
1483.15162	0.20831
1481.22295	0.20806
1479.29427	0.20773
1477.36560	0.20723
1475.43692	0.20660
1473.50824	0.20606
1471.57957	0.20583
1469.65089	0.20580
1467.72222	0.20559
1465.79354	0.20514
1463.86487	0.20483
1461.93619	0.20462
1460.00751	0.20408
1458.07884	0.20332
1456.15016	0.20314
1454.22149	0.20361
1452.29281	0.20399
1450.36414	0.20405
1448.43546	0.20405
1446.50678	0.20416
1444.57811	0.20433
1442.64943	0.20446
1440.72076	0.20442
1438.79208	0.20416
1436.86341	0.20402
1434.93473	0.20430
1433.00605	0.20467
1431.07738	0.20480
1429.14870	0.20484
1427.22003	0.20488
1425.29135	0.20482
1423.36268	0.20466
1421.43400	0.20432
1419.50532	0.20401
1417.57665	0.20416
1415.64797	0.20456
1413.71930	0.20476
1411.79062	0.20475
1409.86195	0.20469
1407.93327	0.20464
1406.00459	0.20454
1404.07592	0.20445
1402.14724	0.20432
1400.21857	0.20408
1398.28989	0.20383
1396.36122	0.20365
1394.43254	0.20359
1392.50386	0.20367
1390.57519	0.20356
1388.64651	0.20312
1386.71784	0.20267
1384.78916	0.20249
1382.86049	0.20256
1380.93181	0.20267
1379.00313	0.20268
1377.07446	0.20253
1375.14578	0.20231
1373.21711	0.20217
1371.28843	0.20217
1369.35976	0.20216
1367.43108	0.20208
1365.50240	0.20192
1363.57373	0.20177
1361.64505	0.20174
1359.71638	0.20181
1357.78770	0.20187
1355.85903	0.20190
1353.93035	0.20193
1352.00167	0.20196
1350.07300	0.20200
1348.14432	0.20205
1346.21565	0.20205
1344.28697	0.20200
1342.35830	0.20186
1340.42962	0.20166
1338.50094	0.20152
1336.57227	0.20145
1334.64359	0.20138
1332.71492	0.20126
1330.78624	0.20101
1328.85757	0.20067
1326.92889	0.20034
1325.00021	0.20010
1323.07154	0.19984
1321.14286	0.19952
1319.21419	0.19922
1317.28551	0.19896
1315.35684	0.19868
1313.42816	0.19831
1311.49948	0.19794
1309.57081	0.19764
1307.64213	0.19734
1305.71346	0.19697
1303.78478	0.19661
1301.85611	0.19627
1299.92743	0.19589
1297.99875	0.19553
1296.07008	0.19520
1294.14140	0.19487
1292.21273	0.19452
1290.28405	0.19412
1288.35538	0.19366
1286.42670	0.19317
1284.49802	0.19271
1282.56935	0.19228
1280.64067	0.19181
1278.71200	0.19131
1276.78332	0.19080
1274.85465	0.19027
1272.92597	0.18966
1270.99729	0.18888
1269.06862	0.18787
1267.13994	0.18670
1265.21127	0.18557
1263.28259	0.18467
1261.35392	0.18403
1259.42524	0.18367
1257.49656	0.18347
1255.56789	0.18325
1253.63921	0.18277
1251.71054	0.18202
1249.78186	0.18114
1247.85319	0.18023
1245.92451	0.17929
1243.99583	0.17826
1242.06716	0.17715
1240.13848	0.17602
1238.20981	0.17488
1236.28113	0.17368
1234.35246	0.17245
1232.42378	0.17122
1230.49510	0.16999
1228.56643	0.16874
1226.63775	0.16756
1224.70908	0.16647
1222.78040	0.16544
1220.85173	0.16438
1218.92305	0.16328
1216.99437	0.16216
1215.06570	0.16104
1213.13702	0.15994
1211.20835	0.15881
1209.27967	0.15769
1207.35100	0.15662
1205.42232	0.15555
1203.49364	0.15442
1201.56497	0.15329
1199.63629	0.15218
1197.70762	0.15109
1195.77894	0.15003
1193.85027	0.14899
1191.92159	0.14793
1189.99291	0.14682
1188.06424	0.14567
1186.13556	0.14452
1184.20689	0.14336
1182.27821	0.14216
1180.34954	0.14097
1178.42086	0.13981
1176.49218	0.13867
1174.56351	0.13754
1172.63483	0.13643
1170.70616	0.13531
1168.77748	0.13407
1166.84881	0.13276
1164.92013	0.13153
1162.99145	0.13046
1161.06278	0.12942
1159.13410	0.12834
1157.20543	0.12732
1155.27675	0.12634
1153.34808	0.12531
1151.41940	0.12422
1149.49072	0.12313
1147.56205	0.12203
1145.63337	0.12092
1143.70470	0.11981
1141.77602	0.11869
1139.84735	0.11753
1137.91867	0.11637
1135.98999	0.11511
1134.06132	0.11365
1132.13264	0.11197
1130.20397	0.11015
1128.27529	0.10817
1126.34662	0.10605
1124.41794	0.10387
1122.48926	0.10167
1120.56059	0.09943
1118.63191	0.09721
1116.70324	0.09509
1114.77456	0.09309
1112.84589	0.09113
1110.91721	0.08924
1108.98853	0.08749
1107.05986	0.08587
1105.13118	0.08432
1103.20251	0.08275
1101.27383	0.08118
1099.34516	0.07962
1097.41648	0.07807
1095.48780	0.07658
1093.55913	0.07511
1091.63045	0.07352
1089.70178	0.07180
1087.77310	0.07016
1085.84443	0.06869
1083.91575	0.06730
1081.98707	0.06594
1080.05840	0.06466
1078.12972	0.06350
1076.20105	0.06251
1074.27237	0.06171
1072.34370	0.06107
1070.41502	0.06059
1068.48634	0.06028
1066.55767	0.06008
1064.62899	0.05996
1062.70032	0.06002
1060.77164	0.06029
1058.84297	0.06064
1056.91429	0.06101
1054.98561	0.06147
1053.05694	0.06209
1051.12826	0.06284
1049.19959	0.06369
1047.27091	0.06464
1045.34224	0.06572
1043.41356	0.06687
1041.48488	0.06809
1039.55621	0.06941
1037.62753	0.07086
1035.69886	0.07237
1033.77018	0.07399
1031.84151	0.07576
1029.91283	0.07766
1027.98415	0.07968
1026.05548	0.08182
1024.12680	0.08406
1022.19813	0.08643
1020.26945	0.08897
1018.34078	0.09163
1016.41210	0.09431
1014.48342	0.09710
1012.55475	0.10006
1010.62607	0.10313
1008.69740	0.10620
1006.76872	0.10921
1004.84005	0.11213
1002.91137	0.11494
1000.98269	0.11760
999.05402	0.12005
997.12534	0.12233
995.19667	0.12444
993.26799	0.12633
991.33932	0.12798
989.41064	0.12946
987.48196	0.13073
985.55329	0.13182
983.62461	0.13281
981.69594	0.13367
979.76726	0.13428
977.83859	0.13467
975.90991	0.13489
973.98123	0.13505
972.05256	0.13522
970.12388	0.13534
968.19521	0.13534
966.26653	0.13522
964.33786	0.13509
962.40918	0.13499
960.48050	0.13486
958.55183	0.13468
956.62315	0.13449
954.69448	0.13429
952.76580	0.13410
950.83713	0.13396
948.90845	0.13380
946.97977	0.13358
945.05110	0.13333
943.12242	0.13307
941.19375	0.13280
939.26507	0.13246
937.33640	0.13202
935.40772	0.13154
933.47904	0.13105
931.55037	0.13058
929.62169	0.13013
927.69302	0.12976
925.76434	0.12943
923.83567	0.12901
921.90699	0.12853
919.97831	0.12811
918.04964	0.12772
916.12096	0.12720
914.19229	0.12657
912.26361	0.12590
910.33494	0.12519
908.40626	0.12448
906.47758	0.12385
904.54891	0.12333
902.62023	0.12291
900.69156	0.12253
898.76288	0.12212
896.83421	0.12165
894.90553	0.12118
892.97685	0.12078
891.04818	0.12044
889.11950	0.12005
887.19083	0.11965
885.26215	0.11935
883.33348	0.11914
881.40480	0.11894
879.47612	0.11872
877.54745	0.11854
875.61877	0.11847
873.69010	0.11850
871.76142	0.11851
869.83275	0.11841
867.90407	0.11827
865.97539	0.11825
864.04672	0.11830
862.11804	0.11825
860.18937	0.11808
858.26069	0.11789
856.33202	0.11764
854.40334	0.11728
852.47466	0.11684
850.54599	0.11637
848.61731	0.11580
846.68864	0.11513
844.75996	0.11444
842.83129	0.11377
840.90261	0.11310
838.97394	0.11239
837.04526	0.11163
835.11658	0.11073
833.18791	0.10972
831.25923	0.10861
829.33056	0.10739
827.40188	0.10609
825.47321	0.10482
823.54453	0.10365
821.61585	0.10267
819.68718	0.10188
817.75850	0.10124
815.82983	0.10070
813.90115	0.10023
811.97248	0.09984
810.04380	0.09951
808.11512	0.09914
806.18645	0.09884
804.25777	0.09887
802.32910	0.09906
800.40042	0.09906
798.47175	0.09876
796.54307	0.09834
794.61439	0.09806
792.68572	0.09799
790.75704	0.09802
788.82837	0.09812
786.89969	0.09823
784.97102	0.09828
783.04234	0.09831
781.11366	0.09832
779.18499	0.09832
777.25631	0.09837
775.32764	0.09844
773.39896	0.09845
771.47029	0.09839
769.54161	0.09829
767.61293	0.09813
765.68426	0.09799
763.75558	0.09782
761.82691	0.09755
759.89823	0.09721
757.96956	0.09682
756.04088	0.09639
754.11220	0.09597
752.18353	0.09551
750.25485	0.09496
748.32618	0.09436
746.39750	0.09372
744.46883	0.09293
742.54015	0.09201
740.61147	0.09122
738.68280	0.09076
736.75412	0.09058
734.82545	0.09054
732.89677	0.09062
730.96810	0.09075
729.03942	0.09090
727.11074	0.09106
725.18207	0.09121
723.25339	0.09132
721.32472	0.09143
719.39604	0.09161
717.46737	0.09186
715.53869	0.09222
713.61001	0.09270
711.68134	0.09316
709.75266	0.09341
707.82399	0.09343
705.89531	0.09327
703.96664	0.09307
702.03796	0.09284
700.10928	0.09245
698.18061	0.09191
696.25193	0.09133
694.32326	0.09077
692.39458	0.09021
690.46591	0.08965
688.53723	0.08914
686.60855	0.08868
684.67988	0.08821
682.75120	0.08768
680.82253	0.08716
678.89385	0.08666
676.96518	0.08609
675.03650	0.08542
673.10782	0.08470
671.17915	0.08385
669.25047	0.08289
667.32180	0.08201
665.39312	0.08124
663.46445	0.08042
661.53577	0.07954
659.60709	0.07866
657.67842	0.07782
655.74974	0.07702
653.82107	0.07622
651.89239	0.07545
649.96372	0.07470
648.03504	0.07386
646.10636	0.07298
644.17769	0.07218
642.24901	0.07138
640.32034	0.07044
638.39166	0.06943
636.46299	0.06838
634.53431	0.06726
632.60563	0.06588
630.67696	0.06375
628.74828	0.06042
626.81961	0.05607
624.89093	0.05174
622.96226	0.04831
621.03358	0.04611
619.10490	0.04491
617.17623	0.04412
615.24755	0.04337
613.31888	0.04250
611.39020	0.04157
609.46153	0.04101
607.53285	0.04104
605.60417	0.04139
603.67550	0.04186
601.74682	0.04255
599.81815	0.04343
597.88947	0.04425
595.96080	0.04487
594.03212	0.04522
592.10344	0.04537
590.17477	0.04548
588.24609	0.04557
586.31742	0.04548
584.38874	0.04522
582.46007	0.04488
580.53139	0.04450
578.60271	0.04412
576.67404	0.04373
574.74536	0.04322
572.81669	0.04258
570.88801	0.04194
568.95934	0.04133
567.03066	0.04080
565.10198	0.04041
563.17331	0.04013
561.24463	0.03988
559.31596	0.03968
557.38728	0.03948
555.45861	0.03919
553.52993	0.03888
551.60125	0.03866
549.67258	0.03850
547.74390	0.03835
545.81523	0.03817
543.88655	0.03797
541.95788	0.03784
540.02920	0.03776
538.10052	0.03765
536.17185	0.03747
534.24317	0.03729
532.31450	0.03714
530.38582	0.03695
528.45715	0.03664
526.52847	0.03627
524.59979	0.03589
522.67112	0.03541
520.74244	0.03485
518.81377	0.03430
516.88509	0.03368
514.95642	0.03304
513.02774	0.03258
511.09906	0.03228
509.17039	0.03200
507.24171	0.03170
505.31304	0.03135
503.38436	0.03096
501.45569	0.03056
499.52701	0.03007
497.59833	0.02946
495.66966	0.02879
493.74098	0.02817
491.81231	0.02755
489.88363	0.02691
487.95496	0.02623
486.02628	0.02550
484.09760	0.02482
482.16893	0.02418
480.24025	0.02349
478.31158	0.02272
476.38290	0.02190
474.45423	0.02115
472.52555	0.02062
470.59687	0.02020
468.66820	0.01970
466.73952	0.01917
464.81085	0.01877
462.88217	0.01848
460.95350	0.01816
459.02482	0.01787
457.09614	0.01777
455.16747	0.01781
453.23879	0.01776
451.31012	0.01765
449.38144	0.01760
447.45277	0.01753
445.52409	0.01732
443.59541	0.01703
441.66674	0.01681
439.73806	0.01671
437.80939	0.01657
435.88071	0.01625
433.95204	0.01582
432.02336	0.01539
430.09468	0.01500
428.16601	0.01462
426.23733	0.01429
424.30866	0.01396
422.37998	0.01346
420.45131	0.01286
418.52263	0.01236
416.59395	0.01194
414.66528	0.01144
412.73660	0.01094
410.80793	0.01062
408.87925	0.01033
406.95058	0.00983
405.02190	0.00919
403.09322	0.00867
401.16455	0.00832
399.23587	0.00799
397.30720	0.00761
395.37852	0.00717
393.44985	0.00665
391.52117	0.00611
389.59249	0.00563
387.66382	0.00528
385.73514	0.00506
383.80647	0.00479
381.87779	0.00441
379.94912	0.00408
378.02044	0.00381
376.09176	0.00344
374.16309	0.00308
372.23441	0.00283
370.30574	0.00256
368.37706	0.00224
