7496.76250	0.00225
7494.83382	0.00227
7492.90514	0.00229
7490.97647	0.00231
7489.04779	0.00232
7487.11912	0.00232
7485.19044	0.00232
7483.26177	0.00233
7481.33309	0.00233
7479.40441	0.00233
7477.47574	0.00232
7475.54706	0.00233
7473.61839	0.00234
7471.68971	0.00235
7469.76104	0.00235
7467.83236	0.00235
7465.90368	0.00235
7463.97501	0.00235
7462.04633	0.00235
7460.11766	0.00234
7458.18898	0.00236
7456.26031	0.00238
7454.33163	0.00240
7452.40295	0.00240
7450.47428	0.00240
7448.54560	0.00241
7446.61693	0.00244
7444.68825	0.00246
7442.75958	0.00246
7440.83090	0.00245
7438.90222	0.00244
7436.97355	0.00245
7435.04487	0.00245
7433.11620	0.00247
7431.18752	0.00248
7429.25885	0.00248
7427.33017	0.00249
7425.40149	0.00250
7423.47282	0.00252
7421.54414	0.00253
7419.61547	0.00254
7417.68679	0.00253
7415.75812	0.00252
7413.82944	0.00252
7411.90076	0.00254
7409.97209	0.00256
7408.04341	0.00256
7406.11474	0.00255
7404.18606	0.00255
7402.25739	0.00255
7400.32871	0.00256
7398.40003	0.00257
7396.47136	0.00259
7394.54268	0.00259
7392.61401	0.00258
7390.68533	0.00258
7388.75666	0.00260
7386.82798	0.00260
7384.89930	0.00259
7382.97063	0.00260
7381.04195	0.00263
7379.11328	0.00265
7377.18460	0.00266
7375.25593	0.00266
7373.32725	0.00266
7371.39857	0.00266
7369.46990	0.00266
7367.54122	0.00267
7365.61255	0.00268
7363.68387	0.00269
7361.75520	0.00270
7359.82652	0.00271
7357.89784	0.00273
7355.96917	0.00272
7354.04049	0.00273
7352.11182	0.00274
7350.18314	0.00275
7348.25447	0.00275
7346.32579	0.00275
7344.39711	0.00275
7342.46844	0.00277
7340.53976	0.00278
7338.61109	0.00280
7336.68241	0.00281
7334.75374	0.00281
7332.82506	0.00281
7330.89638	0.00280
7328.96771	0.00279
7327.03903	0.00280
7325.11036	0.00283
7323.18168	0.00284
7321.25301	0.00285
7319.32433	0.00285
7317.39565	0.00287
7315.46698	0.00289
7313.53830	0.00291
7311.60963	0.00291
7309.68095	0.00290
7307.75228	0.00289
7305.82360	0.00289
7303.89492	0.00289
7301.96625	0.00290
7300.03757	0.00292
7298.10890	0.00293
7296.18022	0.00294
7294.25155	0.00296
7292.32287	0.00296
7290.39419	0.00295
7288.46552	0.00296
7286.53684	0.00297
7284.60817	0.00298
7282.67949	0.00299
7280.75082	0.00300
7278.82214	0.00301
7276.89346	0.00302
7274.96479	0.00302
7273.03611	0.00303
7271.10744	0.00304
7269.17876	0.00304
7267.25009	0.00304
7265.32141	0.00304
7263.39273	0.00306
7261.46406	0.00307
7259.53538	0.00307
7257.60671	0.00306
7255.67803	0.00306
7253.74936	0.00307
7251.82068	0.00307
7249.89200	0.00308
7247.96333	0.00309
7246.03465	0.00309
7244.10598	0.00310
7242.17730	0.00312
7240.24863	0.00314
7238.31995	0.00315
7236.39127	0.00316
7234.46260	0.00317
7232.53392	0.00318
7230.60525	0.00319
7228.67657	0.00320
7226.74790	0.00321
7224.81922	0.00320
7222.89054	0.00318
7220.96187	0.00319
7219.03319	0.00321
7217.10452	0.00322
7215.17584	0.00322
7213.24717	0.00323
7211.31849	0.00325
7209.38981	0.00326
7207.46114	0.00328
7205.53246	0.00328
7203.60379	0.00328
7201.67511	0.00328
7199.74644	0.00328
7197.81776	0.00329
7195.88908	0.00330
7193.96041	0.00332
7192.03173	0.00334
7190.10306	0.00334
7188.17438	0.00333
7186.24571	0.00332
7184.31703	0.00332
7182.38835	0.00334
7180.45968	0.00337
7178.53100	0.00339
7176.60233	0.00338
7174.67365	0.00338
7172.74498	0.00338
7170.81630	0.00339
7168.88762	0.00340
7166.95895	0.00341
7165.03027	0.00341
7163.10160	0.00341
7161.17292	0.00342
7159.24425	0.00344
7157.31557	0.00345
7155.38689	0.00347
7153.45822	0.00349
7151.52954	0.00350
7149.60087	0.00349
7147.67219	0.00349
7145.74352	0.00349
7143.81484	0.00350
7141.88616	0.00352
7139.95749	0.00353
7138.02881	0.00354
7136.10014	0.00354
7134.17146	0.00354
7132.24279	0.00356
7130.31411	0.00357
7128.38543	0.00357
7126.45676	0.00357
7124.52808	0.00358
7122.59941	0.00359
7120.67073	0.00360
7118.74206	0.00361
7116.81338	0.00362
7114.88470	0.00362
7112.95603	0.00361
7111.02735	0.00362
7109.09868	0.00363
7107.17000	0.00366
7105.24133	0.00367
7103.31265	0.00367
7101.38397	0.00368
7099.45530	0.00367
7097.52662	0.00367
7095.59795	0.00369
7093.66927	0.00371
7091.74060	0.00373
7089.81192	0.00374
7087.88324	0.00374
7085.95457	0.00374
7084.02589	0.00374
7082.09722	0.00373
7080.16854	0.00374
7078.23987	0.00377
7076.31119	0.00380
7074.38251	0.00381
7072.45384	0.00381
7070.52516	0.00381
7068.59649	0.00381
7066.66781	0.00382
7064.73914	0.00384
7062.81046	0.00386
7060.88178	0.00387
7058.95311	0.00387
7057.02443	0.00387
7055.09576	0.00386
7053.16708	0.00386
7051.23841	0.00387
7049.30973	0.00388
7047.38105	0.00389
7045.45238	0.00389
7043.52370	0.00389
7041.59503	0.00390
7039.66635	0.00392
7037.73768	0.00394
7035.80900	0.00395
7033.88032	0.00395
7031.95165	0.00395
7030.02297	0.00396
7028.09430	0.00397
7026.16562	0.00398
7024.23695	0.00399
7022.30827	0.00400
7020.37959	0.00401
7018.45092	0.00402
7016.52224	0.00402
7014.59357	0.00404
7012.66489	0.00405
7010.73622	0.00405
7008.80754	0.00406
7006.87886	0.00407
7004.95019	0.00409
7003.02151	0.00410
7001.09284	0.00410
6999.16416	0.00411
6997.23549	0.00412
6995.30681	0.00415
6993.37813	0.00416
6991.44946	0.00416
6989.52078	0.00414
6987.59211	0.00413
6985.66343	0.00414
6983.73476	0.00417
6981.80608	0.00420
6979.87740	0.00422
6977.94873	0.00422
6976.02005	0.00423
6974.09138	0.00424
6972.16270	0.00425
6970.23403	0.00426
6968.30535	0.00428
6966.37667	0.00428
6964.44800	0.00427
6962.51932	0.00427
6960.59065	0.00427
6958.66197	0.00428
6956.73330	0.00429
6954.80462	0.00430
6952.87594	0.00431
6950.94727	0.00431
6949.01859	0.00432
6947.08992	0.00434
6945.16124	0.00436
6943.23257	0.00439
6941.30389	0.00441
6939.37521	0.00441
6937.44654	0.00440
6935.51786	0.00440
6933.58919	0.00442
6931.66051	0.00444
6929.73184	0.00444
6927.80316	0.00444
6925.87448	0.00446
6923.94581	0.00447
6922.01713	0.00447
6920.08846	0.00448
6918.15978	0.00451
6916.23111	0.00454
6914.30243	0.00454
6912.37375	0.00453
6910.44508	0.00453
6908.51640	0.00454
6906.58773	0.00455
6904.65905	0.00456
6902.73038	0.00458
6900.80170	0.00459
6898.87302	0.00458
6896.94435	0.00459
6895.01567	0.00461
6893.08700	0.00463
6891.15832	0.00463
6889.22965	0.00463
6887.30097	0.00464
6885.37229	0.00464
6883.44362	0.00465
6881.51494	0.00466
6879.58627	0.00468
6877.65759	0.00470
6875.72892	0.00471
6873.80024	0.00472
6871.87156	0.00473
6869.94289	0.00475
6868.01421	0.00477
6866.08554	0.00477
6864.15686	0.00477
6862.22819	0.00477
6860.29951	0.00478
6858.37083	0.00479
6856.44216	0.00480
6854.51348	0.00481
6852.58481	0.00481
6850.65613	0.00482
6848.72746	0.00484
6846.79878	0.00487
6844.87010	0.00489
6842.94143	0.00491
6841.01275	0.00491
6839.08408	0.00492
6837.15540	0.00492
6835.22673	0.00492
6833.29805	0.00493
6831.36937	0.00494
6829.44070	0.00495
6827.51202	0.00496
6825.58335	0.00497
6823.65467	0.00497
6821.72600	0.00497
6819.79732	0.00498
6817.86864	0.00499
6815.93997	0.00500
6814.01129	0.00502
6812.08262	0.00505
6810.15394	0.00506
6808.22527	0.00507
6806.29659	0.00508
6804.36791	0.00510
6802.43924	0.00511
6800.51056	0.00512
6798.58189	0.00513
6796.65321	0.00514
6794.72454	0.00515
6792.79586	0.00515
6790.86718	0.00515
6788.93851	0.00515
6787.00983	0.00515
6785.08116	0.00516
6783.15248	0.00517
6781.22381	0.00520
6779.29513	0.00522
6777.36645	0.00524
6775.43778	0.00524
6773.50910	0.00524
6771.58043	0.00525
6769.65175	0.00525
6767.72308	0.00526
6765.79440	0.00529
6763.86572	0.00531
6761.93705	0.00532
6760.00837	0.00532
6758.07970	0.00532
6756.15102	0.00534
6754.22235	0.00535
6752.29367	0.00537
6750.36499	0.00538
6748.43632	0.00539
6746.50764	0.00539
6744.57897	0.00540
6742.65029	0.00541
6740.72162	0.00541
6738.79294	0.00543
6736.86426	0.00546
6734.93559	0.00547
6733.00691	0.00546
6731.07824	0.00547
6729.14956	0.00549
6727.22089	0.00551
6725.29221	0.00553
6723.36353	0.00553
6721.43486	0.00554
6719.50618	0.00556
6717.57751	0.00558
6715.64883	0.00560
6713.72016	0.00562
6711.79148	0.00562
6709.86280	0.00562
6707.93413	0.00562
6706.00545	0.00563
6704.07678	0.00564
6702.14810	0.00565
6700.21943	0.00566
6698.29075	0.00568
6696.36207	0.00569
6694.43340	0.00572
6692.50472	0.00573
6690.57605	0.00574
6688.64737	0.00574
6686.71870	0.00575
6684.79002	0.00577
6682.86134	0.00579
6680.93267	0.00581
6679.00399	0.00582
6677.07532	0.00581
6675.14664	0.00582
6673.21797	0.00585
6671.28929	0.00587
6669.36061	0.00588
6667.43194	0.00588
6665.50326	0.00589
6663.57459	0.00591
6661.64591	0.00592
6659.71724	0.00593
6657.78856	0.00595
6655.85988	0.00598
6653.93121	0.00599
6652.00253	0.00599
6650.07386	0.00599
6648.14518	0.00600
6646.21651	0.00601
6644.28783	0.00601
6642.35915	0.00602
6640.43048	0.00603
6638.50180	0.00605
6636.57313	0.00608
6634.64445	0.00610
6632.71578	0.00612
6630.78710	0.00612
6628.85842	0.00612
6626.92975	0.00614
6625.00107	0.00617
6623.07240	0.00618
6621.14372	0.00618
6619.21505	0.00617
6617.28637	0.00617
6615.35769	0.00620
6613.42902	0.00623
6611.50034	0.00626
6609.57167	0.00629
6607.64299	0.00630
6605.71432	0.00630
6603.78564	0.00629
6601.85696	0.00628
6599.92829	0.00628
6597.99961	0.00630
6596.07094	0.00633
6594.14226	0.00635
6592.21359	0.00636
6590.28491	0.00637
6588.35623	0.00638
6586.42756	0.00639
6584.49888	0.00641
6582.57021	0.00643
6580.64153	0.00646
6578.71286	0.00647
6576.78418	0.00647
6574.85550	0.00646
6572.92683	0.00648
6570.99815	0.00651
6569.06948	0.00652
6567.14080	0.00652
6565.21213	0.00654
6563.28345	0.00656
6561.35477	0.00658
6559.42610	0.00660
6557.49742	0.00660
6555.56875	0.00661
6553.64007	0.00662
6551.71140	0.00663
6549.78272	0.00664
6547.85404	0.00667
6545.92537	0.00670
6543.99669	0.00673
6542.06802	0.00674
6540.13934	0.00673
6538.21067	0.00673
6536.28199	0.00675
6534.35331	0.00678
6532.42464	0.00680
6530.49596	0.00682
6528.56729	0.00685
6526.63861	0.00686
6524.70994	0.00686
6522.78126	0.00686
6520.85258	0.00686
6518.92391	0.00687
6516.99523	0.00688
6515.06656	0.00689
6513.13788	0.00690
6511.20921	0.00691
6509.28053	0.00694
6507.35185	0.00697
6505.42318	0.00698
6503.49450	0.00701
6501.56583	0.00702
6499.63715	0.00704
6497.70848	0.00706
6495.77980	0.00708
6493.85112	0.00709
6491.92245	0.00710
6489.99377	0.00712
6488.06510	0.00713
6486.13642	0.00714
6484.20775	0.00714
6482.27907	0.00716
6480.35039	0.00719
6478.42172	0.00721
6476.49304	0.00721
6474.56437	0.00721
6472.63569	0.00722
6470.70702	0.00725
6468.77834	0.00727
6466.84966	0.00728
6464.92099	0.00728
6462.99231	0.00729
6461.06364	0.00730
6459.13496	0.00732
6457.20629	0.00734
6455.27761	0.00734
6453.34893	0.00735
6451.42026	0.00738
6449.49158	0.00741
6447.56291	0.00741
6445.63423	0.00741
6443.70556	0.00743
6441.77688	0.00746
6439.84820	0.00749
6437.91953	0.00750
6435.99085	0.00751
6434.06218	0.00752
6432.13350	0.00753
6430.20483	0.00755
6428.27615	0.00757
6426.34747	0.00759
6424.41880	0.00761
6422.49012	0.00764
6420.56145	0.00764
6418.63277	0.00765
6416.70410	0.00768
6414.77542	0.00771
6412.84674	0.00771
6410.91807	0.00771
6408.98939	0.00773
6407.06072	0.00776
6405.13204	0.00780
6403.20337	0.00782
6401.27469	0.00783
6399.34601	0.00783
6397.41734	0.00784
6395.48866	0.00786
6393.55999	0.00788
6391.63131	0.00790
6389.70264	0.00790
6387.77396	0.00790
6385.84528	0.00791
6383.91661	0.00793
6381.98793	0.00795
6380.05926	0.00798
6378.13058	0.00801
6376.20191	0.00804
6374.27323	0.00805
6372.34455	0.00806
6370.41588	0.00807
6368.48720	0.00807
6366.55853	0.00808
6364.62985	0.00810
6362.70118	0.00812
6360.77250	0.00814
6358.84382	0.00815
6356.91515	0.00817
6354.98647	0.00820
6353.05780	0.00822
6351.12912	0.00824
6349.20045	0.00825
6347.27177	0.00828
6345.34309	0.00831
6343.41442	0.00834
6341.48574	0.00835
6339.55707	0.00836
6337.62839	0.00836
6335.69972	0.00836
6333.77104	0.00838
6331.84236	0.00841
6329.91369	0.00843
6327.98501	0.00845
6326.05634	0.00846
6324.12766	0.00846
6322.19899	0.00847
6320.27031	0.00848
6318.34163	0.00851
6316.41296	0.00854
6314.48428	0.00857
6312.55561	0.00859
6310.62693	0.00859
6308.69826	0.00859
6306.76958	0.00861
6304.84090	0.00864
6302.91223	0.00867
6300.98355	0.00871
6299.05488	0.00873
6297.12620	0.00874
6295.19753	0.00874
6293.26885	0.00874
6291.34017	0.00875
6289.41150	0.00876
6287.48282	0.00879
6285.55415	0.00881
6283.62547	0.00884
6281.69680	0.00886
6279.76812	0.00888
6277.83944	0.00890
6275.91077	0.00890
6273.98209	0.00890
6272.05342	0.00893
6270.12474	0.00896
6268.19607	0.00899
6266.26739	0.00903
6264.33871	0.00905
6262.41004	0.00906
6260.48136	0.00906
6258.55269	0.00907
6256.62401	0.00909
6254.69534	0.00911
6252.76666	0.00914
6250.83798	0.00917
6248.90931	0.00919
6246.98063	0.00919
6245.05196	0.00920
6243.12328	0.00923
6241.19461	0.00927
6239.26593	0.00930
6237.33725	0.00931
6235.40858	0.00932
6233.47990	0.00933
6231.55123	0.00935
6229.62255	0.00937
6227.69388	0.00940
6225.76520	0.00943
6223.83652	0.00944
6221.90785	0.00945
6219.97917	0.00949
6218.05050	0.00952
6216.12182	0.00953
6214.19315	0.00954
6212.26447	0.00955
6210.33579	0.00958
6208.40712	0.00960
6206.47844	0.00961
6204.54977	0.00963
6202.62109	0.00967
6200.69242	0.00969
6198.76374	0.00970
6196.83506	0.00971
6194.90639	0.00975
6192.97771	0.00978
6191.04904	0.00980
6189.12036	0.00982
6187.19169	0.00982
6185.26301	0.00983
6183.33433	0.00984
6181.40566	0.00985
6179.47698	0.00987
6177.54831	0.00990
6175.61963	0.00991
6173.69096	0.00993
6171.76228	0.00995
6169.83360	0.00997
6167.90493	0.00999
6165.97625	0.01001
6164.04758	0.01004
6162.11890	0.01008
6160.19023	0.01011
6158.26155	0.01013
6156.33287	0.01014
6154.40420	0.01015
6152.47552	0.01018
6150.54685	0.01022
6148.61817	0.01024
6146.68950	0.01025
6144.76082	0.01026
6142.83214	0.01029
6140.90347	0.01032
6138.97479	0.01034
6137.04612	0.01036
6135.11744	0.01037
6133.18877	0.01039
6131.26009	0.01040
6129.33141	0.01043
6127.40274	0.01045
6125.47406	0.01048
6123.54539	0.01051
6121.61671	0.01054
6119.68804	0.01056
6117.75936	0.01059
6115.83068	0.01061
6113.90201	0.01063
6111.97333	0.01065
6110.04466	0.01066
6108.11598	0.01067
6106.18731	0.01068
6104.25863	0.01071
6102.32995	0.01075
6100.40128	0.01078
6098.47260	0.01079
6096.54393	0.01081
6094.61525	0.01084
6092.68658	0.01087
6090.75790	0.01090
6088.82922	0.01092
6086.90055	0.01093
6084.97187	0.01095
6083.04320	0.01097
6081.11452	0.01099
6079.18585	0.01100
6077.25717	0.01102
6075.32849	0.01104
6073.39982	0.01107
6071.47114	0.01110
6069.54247	0.01112
6067.61379	0.01112
6065.68512	0.01113
6063.75644	0.01116
6061.82776	0.01121
6059.89909	0.01125
6057.97041	0.01128
6056.04174	0.01131
6054.11306	0.01132
6052.18439	0.01134
6050.25571	0.01135
6048.32703	0.01136
6046.39836	0.01137
6044.46968	0.01140
6042.54101	0.01144
6040.61233	0.01148
6038.68366	0.01150
6036.75498	0.01152
6034.82630	0.01154
6032.89763	0.01156
6030.96895	0.01158
6029.04028	0.01160
6027.11160	0.01162
6025.18293	0.01165
6023.25425	0.01168
6021.32557	0.01172
6019.39690	0.01176
6017.46822	0.01178
6015.53955	0.01180
6013.61087	0.01182
6011.68220	0.01182
6009.75352	0.01185
6007.82484	0.01189
6005.89617	0.01192
6003.96749	0.01195
6002.03882	0.01197
6000.11014	0.01198
5998.18147	0.01199
5996.25279	0.01202
5994.32411	0.01207
5992.39544	0.01211
5990.46676	0.01212
5988.53809	0.01212
5986.60941	0.01215
5984.68074	0.01218
5982.75206	0.01220
5980.82338	0.01222
5978.89471	0.01225
5976.96603	0.01229
5975.03736	0.01232
5973.10868	0.01234
5971.18001	0.01235
5969.25133	0.01237
5967.32265	0.01241
5965.39398	0.01245
5963.46530	0.01247
5961.53663	0.01249
5959.60795	0.01252
5957.67928	0.01256
5955.75060	0.01259
5953.82192	0.01261
5951.89325	0.01262
5949.96457	0.01264
5948.03590	0.01267
5946.10722	0.01268
5944.17855	0.01269
5942.24987	0.01270
5940.32119	0.01273
5938.39252	0.01277
5936.46384	0.01280
5934.53517	0.01284
5932.60649	0.01288
5930.67782	0.01291
5928.74914	0.01293
5926.82046	0.01295
5924.89179	0.01298
5922.96311	0.01300
5921.03444	0.01302
5919.10576	0.01305
5917.17709	0.01308
5915.24841	0.01310
5913.31973	0.01314
5911.39106	0.01317
5909.46238	0.01319
5907.53371	0.01320
5905.60503	0.01324
5903.67636	0.01327
5901.74768	0.01331
5899.81900	0.01333
5897.89033	0.01333
5895.96165	0.01335
5894.03298	0.01339
5892.10430	0.01344
5890.17563	0.01346
5888.24695	0.01347
5886.31827	0.01350
5884.38960	0.01354
5882.46092	0.01356
5880.53225	0.01358
5878.60357	0.01360
5876.67490	0.01362
5874.74622	0.01367
5872.81755	0.01371
5870.88887	0.01373
5868.96019	0.01374
5867.03152	0.01377
5865.10284	0.01379
5863.17417	0.01381
5861.24549	0.01384
5859.31682	0.01387
5857.38814	0.01391
5855.45946	0.01393
5853.53079	0.01396
5851.60211	0.01400
5849.67344	0.01404
5847.74476	0.01408
5845.81609	0.01411
5843.88741	0.01413
5841.95873	0.01416
5840.03006	0.01418
5838.10138	0.01420
5836.17271	0.01423
5834.24403	0.01428
5832.31536	0.01432
5830.38668	0.01435
5828.45800	0.01436
5826.52933	0.01437
5824.60065	0.01440
5822.67198	0.01443
5820.74330	0.01446
5818.81463	0.01450
5816.88595	0.01453
5814.95727	0.01457
5813.02860	0.01460
5811.09992	0.01463
5809.17125	0.01466
5807.24257	0.01468
5805.31390	0.01471
5803.38522	0.01474
5801.45654	0.01479
5799.52787	0.01482
5797.59919	0.01485
5795.67052	0.01486
5793.74184	0.01488
5791.81317	0.01491
5789.88449	0.01493
5787.95581	0.01496
5786.02714	0.01498
5784.09846	0.01501
5782.16979	0.01504
5780.24111	0.01509
5778.31244	0.01512
5776.38376	0.01514
5774.45508	0.01517
5772.52641	0.01521
5770.59773	0.01526
5768.66906	0.01530
5766.74038	0.01532
5764.81171	0.01532
5762.88303	0.01533
5760.95435	0.01535
5759.02568	0.01537
5757.09700	0.01541
5755.16833	0.01546
5753.23965	0.01552
5751.31098	0.01555
5749.38230	0.01556
5747.45362	0.01559
5745.52495	0.01563
5743.59627	0.01566
5741.66760	0.01570
5739.73892	0.01574
5737.81025	0.01577
5735.88157	0.01580
5733.95289	0.01583
5732.02422	0.01587
5730.09554	0.01590
5728.16687	0.01594
5726.23819	0.01597
5724.30952	0.01599
5722.38084	0.01601
5720.45216	0.01604
5718.52349	0.01608
5716.59481	0.01611
5714.66614	0.01613
5712.73746	0.01615
5710.80879	0.01619
5708.88011	0.01624
5706.95143	0.01629
5705.02276	0.01633
5703.09408	0.01635
5701.16541	0.01638
5699.23673	0.01641
5697.30806	0.01645
5695.37938	0.01650
5693.45070	0.01654
5691.52203	0.01657
5689.59335	0.01659
5687.66468	0.01662
5685.73600	0.01666
5683.80733	0.01668
5681.87865	0.01670
5679.94997	0.01672
5678.02130	0.01675
5676.09262	0.01678
5674.16395	0.01681
5672.23527	0.01685
5670.30660	0.01689
5668.37792	0.01694
5666.44924	0.01699
5664.52057	0.01702
5662.59189	0.01704
5660.66322	0.01706
5658.73454	0.01709
5656.80587	0.01713
5654.87719	0.01718
5652.94851	0.01723
5651.01984	0.01726
5649.09116	0.01728
5647.16249	0.01730
5645.23381	0.01733
5643.30514	0.01737
5641.37646	0.01742
5639.44778	0.01746
5637.51911	0.01748
5635.59043	0.01751
5633.66176	0.01756
5631.73308	0.01760
5629.80441	0.01763
5627.87573	0.01766
5625.94705	0.01768
5624.01838	0.01771
5622.08970	0.01776
5620.16103	0.01779
5618.23235	0.01781
5616.30368	0.01782
5614.37500	0.01786
5612.44632	0.01791
5610.51765	0.01795
5608.58897	0.01799
5606.66030	0.01802
5604.73162	0.01806
5602.80295	0.01811
5600.87427	0.01814
5598.94559	0.01818
5597.01692	0.01821
5595.08824	0.01825
5593.15957	0.01829
5591.23089	0.01832
5589.30222	0.01835
5587.37354	0.01837
5585.44486	0.01838
5583.51619	0.01840
5581.58751	0.01846
5579.65884	0.01852
5577.73016	0.01855
5575.80149	0.01857
5573.87281	0.01860
5571.94413	0.01864
5570.01546	0.01869
5568.08678	0.01873
5566.15811	0.01877
5564.22943	0.01880
5562.30076	0.01884
5560.37208	0.01888
5558.44340	0.01893
5556.51473	0.01897
5554.58605	0.01899
5552.65738	0.01902
5550.72870	0.01906
5548.80003	0.01910
5546.87135	0.01914
5544.94267	0.01915
5543.01400	0.01917
5541.08532	0.01921
5539.15665	0.01926
5537.22797	0.01931
5535.29930	0.01935
5533.37062	0.01939
5531.44194	0.01941
5529.51327	0.01944
5527.58459	0.01948
5525.65592	0.01951
5523.72724	0.01954
5521.79857	0.01958
5519.86989	0.01961
5517.94121	0.01966
5516.01254	0.01970
5514.08386	0.01974
5512.15519	0.01976
5510.22651	0.01980
5508.29784	0.01984
5506.36916	0.01986
5504.44048	0.01990
5502.51181	0.01995
5500.58313	0.02002
5498.65446	0.02007
5496.72578	0.02010
5494.79711	0.02012
5492.86843	0.02014
5490.93975	0.02019
5489.01108	0.02023
5487.08240	0.02029
5485.15373	0.02034
5483.22505	0.02038
5481.29638	0.02041
5479.36770	0.02044
5477.43902	0.02047
5475.51035	0.02050
5473.58167	0.02054
5471.65300	0.02057
5469.72432	0.02060
5467.79565	0.02064
5465.86697	0.02069
5463.93829	0.02073
5462.00962	0.02076
5460.08094	0.02081
5458.15227	0.02086
5456.22359	0.02089
5454.29492	0.02092
5452.36624	0.02096
5450.43756	0.02099
5448.50889	0.02103
5446.58021	0.02106
5444.65154	0.02108
5442.72286	0.02111
5440.79419	0.02117
5438.86551	0.02121
5436.93683	0.02124
5435.00816	0.02127
5433.07948	0.02132
5431.15081	0.02136
5429.22213	0.02139
5427.29346	0.02143
5425.36478	0.02148
5423.43610	0.02155
5421.50743	0.02161
5419.57875	0.02165
5417.65008	0.02167
5415.72140	0.02167
5413.79273	0.02168
5411.86405	0.02173
5409.93537	0.02178
5408.00670	0.02184
5406.07802	0.02190
5404.14935	0.02195
5402.22067	0.02200
5400.29200	0.02204
5398.36332	0.02206
5396.43464	0.02209
5394.50597	0.02213
5392.57729	0.02218
5390.64862	0.02222
5388.71994	0.02226
5386.79127	0.02229
5384.86259	0.02232
5382.93391	0.02237
5381.00524	0.02243
5379.07656	0.02248
5377.14789	0.02251
5375.21921	0.02254
5373.29054	0.02257
5371.36186	0.02261
5369.43318	0.02266
5367.50451	0.02270
5365.57583	0.02273
5363.64716	0.02276
5361.71848	0.02279
5359.78981	0.02284
5357.86113	0.02288
5355.93245	0.02292
5354.00378	0.02295
5352.07510	0.02298
5350.14643	0.02303
5348.21775	0.02308
5346.28908	0.02312
5344.36040	0.02317
5342.43172	0.02321
5340.50305	0.02324
5338.57437	0.02326
5336.64570	0.02331
5334.71702	0.02337
5332.78835	0.02343
5330.85967	0.02350
5328.93099	0.02355
5327.00232	0.02358
5325.07364	0.02361
5323.14497	0.02366
5321.21629	0.02370
5319.28762	0.02374
5317.35894	0.02379
5315.43026	0.02383
5313.50159	0.02386
5311.57291	0.02390
5309.64424	0.02394
5307.71556	0.02398
5305.78689	0.02404
5303.85821	0.02410
5301.92953	0.02413
5300.00086	0.02414
5298.07218	0.02417
5296.14351	0.02423
5294.21483	0.02429
5292.28616	0.02433
5290.35748	0.02437
5288.42880	0.02442
5286.50013	0.02446
5284.57145	0.02449
5282.64278	0.02453
5280.71410	0.02458
5278.78543	0.02463
5276.85675	0.02465
5274.92807	0.02468
5272.99940	0.02473
5271.07072	0.02478
5269.14205	0.02484
5267.21337	0.02489
5265.28470	0.02494
5263.35602	0.02498
5261.42734	0.02502
5259.49867	0.02506
5257.56999	0.02509
5255.64132	0.02513
5253.71264	0.02518
5251.78397	0.02524
5249.85529	0.02529
5247.92661	0.02533
5245.99794	0.02537
5244.06926	0.02541
5242.14059	0.02546
5240.21191	0.02551
5238.28324	0.02555
5236.35456	0.02560
5234.42588	0.02564
5232.49721	0.02567
5230.56853	0.02570
5228.63986	0.02574
5226.71118	0.02577
5224.78251	0.02582
5222.85383	0.02589
5220.92515	0.02594
5218.99648	0.02599
5217.06780	0.02605
5215.13913	0.02610
5213.21045	0.02613
5211.28178	0.02615
5209.35310	0.02618
5207.42442	0.02622
5205.49575	0.02628
5203.56707	0.02636
5201.63840	0.02641
5199.70972	0.02644
5197.78105	0.02648
5195.85237	0.02654
5193.92369	0.02659
5191.99502	0.02662
5190.06634	0.02664
5188.13767	0.02668
5186.20899	0.02673
5184.28032	0.02680
5182.35164	0.02684
5180.42296	0.02688
5178.49429	0.02693
5176.56561	0.02700
5174.63694	0.02705
5172.70826	0.02708
5170.77959	0.02712
5168.85091	0.02716
5166.92223	0.02719
5164.99356	0.02723
5163.06488	0.02729
5161.13621	0.02736
5159.20753	0.02740
5157.27886	0.02743
5155.35018	0.02747
5153.42150	0.02752
5151.49283	0.02757
5149.56415	0.02762
5147.63548	0.02768
5145.70680	0.02773
5143.77813	0.02777
5141.84945	0.02783
5139.92077	0.02788
5137.99210	0.02791
5136.06342	0.02794
5134.13475	0.02798
5132.20607	0.02803
5130.27740	0.02809
5128.34872	0.02814
5126.42004	0.02818
5124.49137	0.02821
5122.56269	0.02824
5120.63402	0.02828
5118.70534	0.02834
5116.77667	0.02839
5114.84799	0.02844
5112.91931	0.02848
5110.99064	0.02853
5109.06196	0.02857
5107.13329	0.02862
5105.20461	0.02867
5103.27594	0.02872
5101.34726	0.02878
5099.41858	0.02884
5097.48991	0.02889
5095.56123	0.02894
5093.63256	0.02899
5091.70388	0.02904
5089.77521	0.02909
5087.84653	0.02912
5085.91785	0.02915
5083.98918	0.02919
5082.06050	0.02924
5080.13183	0.02929
5078.20315	0.02933
5076.27448	0.02937
5074.34580	0.02944
5072.41712	0.02951
5070.48845	0.02957
5068.55977	0.02962
5066.63110	0.02967
5064.70242	0.02972
5062.77375	0.02975
5060.84507	0.02978
5058.91639	0.02982
5056.98772	0.02988
5055.05904	0.02993
5053.13037	0.02997
5051.20169	0.03001
5049.27302	0.03004
5047.34434	0.03008
5045.41566	0.03013
5043.48699	0.03018
5041.55831	0.03023
5039.62964	0.03029
5037.70096	0.03034
5035.77229	0.03041
5033.84361	0.03046
5031.91493	0.03051
5029.98626	0.03056
5028.05758	0.03061
5026.12891	0.03066
5024.20023	0.03071
5022.27156	0.03075
5020.34288	0.03081
5018.41420	0.03087
5016.48553	0.03091
5014.55685	0.03094
5012.62818	0.03099
5010.69950	0.03104
5008.77083	0.03108
5006.84215	0.03112
5004.91347	0.03118
5002.98480	0.03124
5001.05612	0.03130
4999.12745	0.03135
4997.19877	0.03140
4995.27010	0.03145
4993.34142	0.03151
4991.41274	0.03157
4989.48407	0.03161
4987.55539	0.03164
4985.62672	0.03168
4983.69804	0.03175
4981.76937	0.03181
4979.84069	0.03185
4977.91201	0.03189
4975.98334	0.03196
4974.05466	0.03204
4972.12599	0.03210
4970.19731	0.03214
4968.26864	0.03220
4966.33996	0.03225
4964.41128	0.03229
4962.48261	0.03233
4960.55393	0.03238
4958.62526	0.03244
4956.69658	0.03250
4954.76791	0.03255
4952.83923	0.03259
4950.91055	0.03264
4948.98188	0.03268
4947.05320	0.03272
4945.12453	0.03278
4943.19585	0.03285
4941.26718	0.03291
4939.33850	0.03296
4937.40982	0.03302
4935.48115	0.03309
4933.55247	0.03315
4931.62380	0.03321
4929.69512	0.03325
4927.76645	0.03329
4925.83777	0.03334
4923.90909	0.03341
4921.98042	0.03347
4920.05174	0.03352
4918.12307	0.03356
4916.19439	0.03360
4914.26572	0.03364
4912.33704	0.03367
4910.40836	0.03371
4908.47969	0.03377
4906.55101	0.03385
4904.62234	0.03391
4902.69366	0.03396
4900.76499	0.03401
4898.83631	0.03406
4896.90763	0.03411
4894.97896	0.03417
4893.05028	0.03423
4891.12161	0.03428
4889.19293	0.03433
4887.26426	0.03438
4885.33558	0.03444
4883.40690	0.03450
4881.47823	0.03455
4879.54955	0.03459
4877.62088	0.03465
4875.69220	0.03470
4873.76353	0.03475
4871.83485	0.03481
4869.90617	0.03487
4867.97750	0.03492
4866.04882	0.03496
4864.12015	0.03501
4862.19147	0.03508
4860.26280	0.03515
4858.33412	0.03518
4856.40544	0.03521
4854.47677	0.03526
4852.54809	0.03531
4850.61942	0.03537
4848.69074	0.03544
4846.76207	0.03551
4844.83339	0.03557
4842.90471	0.03561
4840.97604	0.03565
4839.04736	0.03570
4837.11869	0.03576
4835.19001	0.03582
4833.26134	0.03590
4831.33266	0.03597
4829.40398	0.03604
4827.47531	0.03610
4825.54663	0.03616
4823.61796	0.03622
4821.68928	0.03626
4819.76061	0.03630
4817.83193	0.03635
4815.90325	0.03641
4813.97458	0.03648
4812.04590	0.03653
4810.11723	0.03658
4808.18855	0.03662
4806.25988	0.03668
4804.33120	0.03674
4802.40252	0.03683
4800.47385	0.03691
4798.54517	0.03697
4796.61650	0.03701
4794.68782	0.03704
4792.75915	0.03709
4790.83047	0.03716
4788.90179	0.03722
4786.97312	0.03729
4785.04444	0.03735
4783.11577	0.03741
4781.18709	0.03746
4779.25842	0.03750
4777.32974	0.03755
4775.40106	0.03762
4773.47239	0.03769
4771.54371	0.03776
4769.61504	0.03782
4767.68636	0.03787
4765.75769	0.03792
4763.82901	0.03798
4761.90033	0.03805
4759.97166	0.03812
4758.04298	0.03818
4756.11431	0.03825
4754.18563	0.03832
4752.25696	0.03837
4750.32828	0.03840
4748.39960	0.03845
4746.47093	0.03853
4744.54225	0.03861
4742.61358	0.03867
4740.68490	0.03870
4738.75623	0.03875
4736.82755	0.03882
4734.89887	0.03890
4732.97020	0.03898
4731.04152	0.03906
4729.11285	0.03912
4727.18417	0.03917
4725.25550	0.03922
4723.32682	0.03928
4721.39814	0.03935
4719.46947	0.03942
4717.54079	0.03948
4715.61212	0.03953
4713.68344	0.03959
4711.75477	0.03964
4709.82609	0.03968
4707.89741	0.03972
4705.96874	0.03979
4704.04006	0.03987
4702.11139	0.03994
4700.18271	0.03998
4698.25404	0.04004
4696.32536	0.04012
4694.39668	0.04021
4692.46801	0.04029
4690.53933	0.04035
4688.61066	0.04041
4686.68198	0.04045
4684.75331	0.04051
4682.82463	0.04056
4680.89595	0.04063
4678.96728	0.04071
4677.03860	0.04079
4675.10993	0.04087
4673.18125	0.04094
4671.25258	0.04101
4669.32390	0.04106
4667.39522	0.04111
4665.46655	0.04117
4663.53787	0.04123
4661.60920	0.04129
4659.68052	0.04135
4657.75185	0.04143
4655.82317	0.04150
4653.89449	0.04156
4651.96582	0.04162
4650.03714	0.04168
4648.10847	0.04176
4646.17979	0.04186
4644.25112	0.04194
4642.32244	0.04199
4640.39376	0.04203
4638.46509	0.04209
4636.53641	0.04216
4634.60774	0.04223
4632.67906	0.04229
4630.75039	0.04235
4628.82171	0.04242
4626.89303	0.04249
4624.96436	0.04256
4623.03568	0.04262
4621.10701	0.04268
4619.17833	0.04273
4617.24966	0.04280
4615.32098	0.04290
4613.39230	0.04301
4611.46363	0.04310
4609.53495	0.04316
4607.60628	0.04321
4605.67760	0.04327
4603.74893	0.04333
4601.82025	0.04341
4599.89157	0.04350
4597.96290	0.04358
4596.03422	0.04365
4594.10555	0.04371
4592.17687	0.04377
4590.24820	0.04384
4588.31952	0.04392
4586.39084	0.04401
4584.46217	0.04407
4582.53349	0.04412
4580.60482	0.04417
4578.67614	0.04424
4576.74747	0.04432
4574.81879	0.04438
4572.89011	0.04447
4570.96144	0.04456
4569.03276	0.04464
4567.10409	0.04470
4565.17541	0.04475
4563.24674	0.04482
4561.31806	0.04490
4559.38938	0.04498
4557.46071	0.04505
4555.53203	0.04513
4553.60336	0.04521
4551.67468	0.04527
4549.74601	0.04534
4547.81733	0.04542
4545.88865	0.04548
4543.95998	0.04556
4542.03130	0.04565
4540.10263	0.04573
4538.17395	0.04579
4536.24528	0.04585
4534.31660	0.04592
4532.38792	0.04599
4530.45925	0.04608
4528.53057	0.04617
4526.60190	0.04626
4524.67322	0.04632
4522.74455	0.04639
4520.81587	0.04647
4518.88719	0.04656
4516.95852	0.04664
4515.02984	0.04673
4513.10117	0.04681
4511.17249	0.04688
4509.24382	0.04693
4507.31514	0.04699
4505.38646	0.04709
4503.45779	0.04721
4501.52911	0.04730
4499.60044	0.04737
4497.67176	0.04744
4495.74309	0.04751
4493.81441	0.04759
4491.88573	0.04766
4489.95706	0.04773
4488.02838	0.04781
4486.09971	0.04789
4484.17103	0.04797
4482.24236	0.04805
4480.31368	0.04812
4478.38500	0.04821
4476.45633	0.04829
4474.52765	0.04835
4472.59898	0.04843
4470.67030	0.04853
4468.74163	0.04864
4466.81295	0.04873
4464.88427	0.04881
4462.95560	0.04889
4461.02692	0.04897
4459.09825	0.04906
4457.16957	0.04915
4455.24090	0.04924
4453.31222	0.04933
4451.38354	0.04939
4449.45487	0.04946
4447.52619	0.04954
4445.59752	0.04965
4443.66884	0.04975
4441.74017	0.04982
4439.81149	0.04988
4437.88281	0.04997
4435.95414	0.05008
4434.02546	0.05016
4432.09679	0.05025
4430.16811	0.05034
4428.23944	0.05043
4426.31076	0.05051
4424.38208	0.05058
4422.45341	0.05065
4420.52473	0.05072
4418.59606	0.05080
4416.66738	0.05090
4414.73871	0.05100
4412.81003	0.05110
4410.88135	0.05120
4408.95268	0.05128
4407.02400	0.05136
4405.09533	0.05145
4403.16665	0.05155
4401.23798	0.05164
4399.30930	0.05171
4397.38062	0.05178
4395.45195	0.05188
4393.52327	0.05198
4391.59460	0.05208
4389.66592	0.05217
4387.73725	0.05224
4385.80857	0.05232
4383.87989	0.05241
4381.95122	0.05251
4380.02254	0.05260
4378.09387	0.05270
4376.16519	0.05280
4374.23652	0.05290
4372.30784	0.05299
4370.37916	0.05308
4368.45049	0.05317
4366.52181	0.05325
4364.59314	0.05330
4362.66446	0.05338
4360.73579	0.05350
4358.80711	0.05364
4356.87843	0.05377
4354.94976	0.05386
4353.02108	0.05393
4351.09241	0.05400
4349.16373	0.05408
4347.23506	0.05417
4345.30638	0.05428
4343.37770	0.05438
4341.44903	0.05447
4339.52035	0.05457
4337.59168	0.05468
4335.66300	0.05479
4333.73433	0.05491
4331.80565	0.05501
4329.87697	0.05510
4327.94830	0.05518
4326.01962	0.05526
4324.09095	0.05533
4322.16227	0.05541
4320.23360	0.05554
4318.30492	0.05568
4316.37624	0.05577
4314.44757	0.05584
4312.51889	0.05594
4310.59022	0.05605
4308.66154	0.05617
4306.73287	0.05628
4304.80419	0.05639
4302.87551	0.05651
4300.94684	0.05662
4299.01816	0.05670
4297.08949	0.05680
4295.16081	0.05692
4293.23214	0.05701
4291.30346	0.05710
4289.37478	0.05721
4287.44611	0.05734
4285.51743	0.05745
4283.58876	0.05755
4281.66008	0.05766
4279.73141	0.05777
4277.80273	0.05786
4275.87405	0.05795
4273.94538	0.05806
4272.01670	0.05818
4270.08803	0.05827
4268.15935	0.05834
4266.23068	0.05841
4264.30200	0.05851
4262.37332	0.05862
4260.44465	0.05872
4258.51597	0.05881
4256.58730	0.05890
4254.65862	0.05901
4252.72995	0.05914
4250.80127	0.05926
4248.87259	0.05936
4246.94392	0.05947
4245.01524	0.05957
4243.08657	0.05969
4241.15789	0.05980
4239.22922	0.05990
4237.30054	0.06001
4235.37186	0.06013
4233.44319	0.06028
4231.51451	0.06041
4229.58584	0.06050
4227.65716	0.06059
4225.72849	0.06071
4223.79981	0.06083
4221.87113	0.06094
4219.94246	0.06104
4218.01378	0.06114
4216.08511	0.06124
4214.15643	0.06133
4212.22776	0.06144
4210.29908	0.06157
4208.37040	0.06170
4206.44173	0.06182
4204.51305	0.06193
4202.58438	0.06205
4200.65570	0.06218
4198.72703	0.06230
4196.79835	0.06241
4194.86968	0.06250
4192.94100	0.06262
4191.01232	0.06274
4189.08365	0.06287
4187.15497	0.06299
4185.22630	0.06309
4183.29762	0.06319
4181.36895	0.06330
4179.44027	0.06342
4177.51159	0.06354
4175.58292	0.06366
4173.65424	0.06377
4171.72557	0.06390
4169.79689	0.06403
4167.86822	0.06415
4165.93954	0.06428
4164.01086	0.06440
4162.08219	0.06450
4160.15351	0.06460
4158.22484	0.06470
4156.29616	0.06484
4154.36749	0.06497
4152.43881	0.06511
4150.51013	0.06524
4148.58146	0.06537
4146.65278	0.06549
4144.72411	0.06559
4142.79543	0.06569
4140.86676	0.06581
4138.93808	0.06594
4137.00940	0.06606
4135.08073	0.06618
4133.15205	0.06630
4131.22338	0.06643
4129.29470	0.06656
4127.36603	0.06668
4125.43735	0.06680
4123.50867	0.06691
4121.58000	0.06703
4119.65132	0.06716
4117.72265	0.06728
4115.79397	0.06740
4113.86530	0.06752
4111.93662	0.06765
4110.00794	0.06779
4108.07927	0.06793
4106.15059	0.06807
4104.22192	0.06821
4102.29324	0.06833
4100.36457	0.06845
4098.43589	0.06857
4096.50721	0.06868
4094.57854	0.06880
4092.64986	0.06893
4090.72119	0.06907
4088.79251	0.06918
4086.86384	0.06931
4084.93516	0.06945
4083.00648	0.06960
4081.07781	0.06973
4079.14913	0.06985
4077.22046	0.06999
4075.29178	0.07013
4073.36311	0.07027
4071.43443	0.07041
4069.50575	0.07055
4067.57708	0.07069
4065.64840	0.07082
4063.71973	0.07094
4061.79105	0.07106
4059.86238	0.07120
4057.93370	0.07135
4056.00502	0.07149
4054.07635	0.07162
4052.14767	0.07174
4050.21900	0.07187
4048.29032	0.07199
4046.36165	0.07211
4044.43297	0.07224
4042.50429	0.07239
4040.57562	0.07252
4038.64694	0.07265
4036.71827	0.07278
4034.78959	0.07292
4032.86092	0.07306
4030.93224	0.07322
4029.00356	0.07337
4027.07489	0.07349
4025.14621	0.07361
4023.21754	0.07376
4021.28886	0.07391
4019.36019	0.07406
4017.43151	0.07419
4015.50283	0.07429
4013.57416	0.07441
4011.64548	0.07456
4009.71681	0.07473
4007.78813	0.07491
4005.85946	0.07506
4003.93078	0.07519
4002.00210	0.07531
4000.07343	0.07543
3998.14475	0.07555
3996.21608	0.07568
3994.28740	0.07583
3992.35873	0.07598
3990.43005	0.07612
3988.50137	0.07627
3986.57270	0.07643
3984.64402	0.07659
3982.71535	0.07674
3980.78667	0.07688
3978.85800	0.07702
3976.92932	0.07715
3975.00064	0.07727
3973.07197	0.07741
3971.14329	0.07757
3969.21462	0.07772
3967.28594	0.07786
3965.35727	0.07801
3963.42859	0.07814
3961.49991	0.07828
3959.57124	0.07845
3957.64256	0.07861
3955.71389	0.07875
3953.78521	0.07888
3951.85654	0.07900
3949.92786	0.07910
3947.99918	0.07923
3946.07051	0.07937
3944.14183	0.07951
3942.21316	0.07966
3940.28448	0.07983
3938.35581	0.08000
3936.42713	0.08014
3934.49845	0.08026
3932.56978	0.08038
3930.64110	0.08056
3928.71243	0.08077
3926.78375	0.08093
3924.85508	0.08105
3922.92640	0.08117
3920.99772	0.08130
3919.06905	0.08139
3917.14037	0.08152
3915.21170	0.08174
3913.28302	0.08197
3911.35435	0.08216
3909.42567	0.08229
3907.49699	0.08233
3905.56832	0.08229
3903.63964	0.08230
3901.71097	0.08243
3899.78229	0.08269
3897.85362	0.08303
3895.92494	0.08331
3893.99626	0.08342
3892.06759	0.08349
3890.13891	0.08365
3888.21024	0.08377
3886.28156	0.08384
3884.35289	0.08400
3882.42421	0.08419
3880.49553	0.08436
3878.56686	0.08460
3876.63818	0.08481
3874.70951	0.08489
3872.78083	0.08491
3870.85216	0.08495
3868.92348	0.08514
3866.99480	0.08540
3865.06613	0.08558
3863.13745	0.08578
3861.20878	0.08605
3859.28010	0.08625
3857.35143	0.08619
3855.42275	0.08586
3853.49407	0.08579
3851.56540	0.08630
3849.63672	0.08695
3847.70805	0.08731
3845.77937	0.08741
3843.85070	0.08745
3841.92202	0.08750
3839.99334	0.08754
3838.06467	0.08763
3836.13599	0.08786
3834.20732	0.08814
3832.27864	0.08837
3830.34997	0.08862
3828.42129	0.08886
3826.49261	0.08905
3824.56394	0.08914
3822.63526	0.08910
3820.70659	0.08915
3818.77791	0.08936
3816.84924	0.08957
3814.92056	0.08986
3812.99188	0.09023
3811.06321	0.09045
3809.13453	0.09046
3807.20586	0.09050
3805.27718	0.09064
3803.34851	0.09074
3801.41983	0.09085
3799.49115	0.09112
3797.56248	0.09140
3795.63380	0.09163
3793.70513	0.09190
3791.77645	0.09215
3789.84778	0.09234
3787.91910	0.09248
3785.99042	0.09260
3784.06175	0.09275
3782.13307	0.09290
3780.20440	0.09302
3778.27572	0.09320
3776.34705	0.09344
3774.41837	0.09362
3772.48969	0.09368
3770.56102	0.09374
3768.63234	0.09391
3766.70367	0.09413
3764.77499	0.09435
3762.84632	0.09455
3760.91764	0.09466
3758.98896	0.09476
3757.06029	0.09492
3755.13161	0.09498
3753.20294	0.09486
3751.27426	0.09480
3749.34559	0.09501
3747.41691	0.09518
3745.48823	0.09515
3743.55956	0.09541
3741.63088	0.09601
3739.70221	0.09634
3737.77353	0.09628
3735.84486	0.09626
3733.91618	0.09651
3731.98750	0.09691
3730.05883	0.09727
3728.13015	0.09749
3726.20148	0.09763
3724.27280	0.09781
3722.34413	0.09802
3720.41545	0.09827
3718.48677	0.09855
3716.55810	0.09874
3714.62942	0.09873
3712.70075	0.09865
3710.77207	0.09877
3708.84340	0.09913
3706.91472	0.09952
3704.98604	0.09976
3703.05737	0.09985
3701.12869	0.10001
3699.20002	0.10027
3697.27134	0.10049
3695.34267	0.10061
3693.41399	0.10062
3691.48531	0.10058
3689.55664	0.10063
3687.62796	0.10093
3685.69929	0.10135
3683.77061	0.10166
3681.84194	0.10179
3679.91326	0.10181
3677.98458	0.10172
3676.05591	0.10166
3674.12723	0.10187
3672.19856	0.10214
3670.26988	0.10234
3668.34121	0.10267
3666.41253	0.10309
3664.48385	0.10338
3662.55518	0.10357
3660.62650	0.10369
3658.69783	0.10371
3656.76915	0.10374
3654.84048	0.10386
3652.91180	0.10384
3650.98312	0.10358
3649.05445	0.10345
3647.12577	0.10372
3645.19710	0.10425
3643.26842	0.10474
3641.33975	0.10506
3639.41107	0.10527
3637.48239	0.10541
3635.55372	0.10551
3633.62504	0.10557
3631.69637	0.10549
3629.76769	0.10538
3627.83902	0.10559
3625.91034	0.10606
3623.98166	0.10637
3622.05299	0.10639
3620.12431	0.10634
3618.19564	0.10644
3616.26696	0.10665
3614.33829	0.10679
3612.40961	0.10686
3610.48093	0.10694
3608.55226	0.10710
3606.62358	0.10738
3604.69491	0.10767
3602.76623	0.10785
3600.83756	0.10796
3598.90888	0.10808
3596.98020	0.10819
3595.05153	0.10832
3593.12285	0.10844
3591.19418	0.10848
3589.26550	0.10844
3587.33683	0.10854
3585.40815	0.10885
3583.47947	0.10917
3581.55080	0.10939
3579.62212	0.10957
3577.69345	0.10973
3575.76477	0.10988
3573.83610	0.11000
3571.90742	0.11007
3569.97874	0.11005
3568.05007	0.11003
3566.12139	0.11019
3564.19272	0.11048
3562.26404	0.11071
3560.33537	0.11089
3558.40669	0.11107
3556.47801	0.11126
3554.54934	0.11137
3552.62066	0.11145
3550.69199	0.11155
3548.76331	0.11164
3546.83464	0.11173
3544.90596	0.11191
3542.97728	0.11212
3541.04861	0.11229
3539.11993	0.11241
3537.19126	0.11250
3535.26258	0.11261
3533.33391	0.11272
3531.40523	0.11279
3529.47655	0.11284
3527.54788	0.11290
3525.61920	0.11297
3523.69053	0.11304
3521.76185	0.11314
3519.83318	0.11323
3517.90450	0.11331
3515.97582	0.11340
3514.04715	0.11348
3512.11847	0.11351
3510.18980	0.11354
3508.26112	0.11360
3506.33245	0.11369
3504.40377	0.11377
3502.47509	0.11384
3500.54642	0.11389
3498.61774	0.11392
3496.68907	0.11396
3494.76039	0.11402
3492.83172	0.11408
3490.90304	0.11414
3488.97436	0.11418
3487.04569	0.11425
3485.11701	0.11433
3483.18834	0.11440
3481.25966	0.11447
3479.33099	0.11459
3477.40231	0.11475
3475.47363	0.11489
3473.54496	0.11502
3471.61628	0.11518
3469.68761	0.11534
3467.75893	0.11550
3465.83026	0.11567
3463.90158	0.11584
3461.97290	0.11602
3460.04423	0.11623
3458.11555	0.11646
3456.18688	0.11669
3454.25820	0.11687
3452.32953	0.11703
3450.40085	0.11716
3448.47217	0.11726
3446.54350	0.11740
3444.61482	0.11762
3442.68615	0.11785
3440.75747	0.11810
3438.82880	0.11838
3436.90012	0.11869
3434.97144	0.11901
3433.04277	0.11937
3431.11409	0.11976
3429.18542	0.12016
3427.25674	0.12053
3425.32807	0.12086
3423.39939	0.12121
3421.47071	0.12157
3419.54204	0.12192
3417.61336	0.12225
3415.68469	0.12256
3413.75601	0.12284
3411.82734	0.12312
3409.89866	0.12338
3407.96998	0.12363
3406.04131	0.12385
3404.11263	0.12407
3402.18396	0.12430
3400.25528	0.12455
3398.32661	0.12481
3396.39793	0.12509
3394.46925	0.12536
3392.54058	0.12563
3390.61190	0.12592
3388.68323	0.12619
3386.75455	0.12643
3384.82588	0.12667
3382.89720	0.12692
3380.96852	0.12718
3379.03985	0.12743
3377.11117	0.12766
3375.18250	0.12788
3373.25382	0.12811
3371.32515	0.12835
3369.39647	0.12857
3367.46779	0.12879
3365.53912	0.12902
3363.61044	0.12926
3361.68177	0.12949
3359.75309	0.12973
3357.82442	0.12997
3355.89574	0.13020
3353.96706	0.13042
3352.03839	0.13064
3350.10971	0.13086
3348.18104	0.13107
3346.25236	0.13130
3344.32369	0.13155
3342.39501	0.13177
3340.46633	0.13199
3338.53766	0.13223
3336.60898	0.13247
3334.68031	0.13269
3332.75163	0.13290
3330.82296	0.13311
3328.89428	0.13335
3326.96560	0.13362
3325.03693	0.13389
3323.10825	0.13412
3321.17958	0.13434
3319.25090	0.13455
3317.32223	0.13478
3315.39355	0.13502
3313.46487	0.13524
3311.53620	0.13544
3309.60752	0.13570
3307.67885	0.13599
3305.75017	0.13627
3303.82150	0.13651
3301.89282	0.13672
3299.96414	0.13696
3298.03547	0.13721
3296.10679	0.13747
3294.17812	0.13772
3292.24944	0.13797
3290.32077	0.13823
3288.39209	0.13848
3286.46341	0.13871
3284.53474	0.13896
3282.60606	0.13921
3280.67739	0.13945
3278.74871	0.13970
3276.82004	0.13996
3274.89136	0.14021
3272.96268	0.14046
3271.03401	0.14072
3269.10533	0.14099
3267.17666	0.14125
3265.24798	0.14151
3263.31931	0.14175
3261.39063	0.14198
3259.46195	0.14223
3257.53328	0.14249
3255.60460	0.14276
3253.67593	0.14303
3251.74725	0.14329
3249.81858	0.14353
3247.88990	0.14377
3245.96122	0.14404
3244.03255	0.14431
3242.10387	0.14458
3240.17520	0.14481
3238.24652	0.14502
3236.31785	0.14524
3234.38917	0.14548
3232.46049	0.14576
3230.53182	0.14605
3228.60314	0.14633
3226.67447	0.14659
3224.74579	0.14680
3222.81712	0.14701
3220.88844	0.14725
3218.95976	0.14752
3217.03109	0.14780
3215.10241	0.14808
3213.17374	0.14834
3211.24506	0.14856
3209.31639	0.14880
3207.38771	0.14905
3205.45903	0.14930
3203.53036	0.14958
3201.60168	0.14986
3199.67301	0.15014
3197.74433	0.15041
3195.81566	0.15067
3193.88698	0.15095
3191.95830	0.15126
3190.02963	0.15154
3188.10095	0.15181
3186.17228	0.15208
3184.24360	0.15236
3182.31493	0.15265
3180.38625	0.15292
3178.45757	0.15319
3176.52890	0.15344
3174.60022	0.15366
3172.67155	0.15390
3170.74287	0.15419
3168.81420	0.15449
3166.88552	0.15478
3164.95684	0.15504
3163.02817	0.15528
3161.09949	0.15552
3159.17082	0.15578
3157.24214	0.15604
3155.31347	0.15630
3153.38479	0.15656
3151.45611	0.15683
3149.52744	0.15708
3147.59876	0.15733
3145.67009	0.15758
3143.74141	0.15783
3141.81274	0.15808
3139.88406	0.15835
3137.95538	0.15862
3136.02671	0.15889
3134.09803	0.15918
3132.16936	0.15949
3130.24068	0.15977
3128.31201	0.16000
3126.38333	0.16023
3124.45465	0.16051
3122.52598	0.16080
3120.59730	0.16104
3118.66863	0.16128
3116.73995	0.16153
3114.81128	0.16180
3112.88260	0.16207
3110.95392	0.16234
3109.02525	0.16258
3107.09657	0.16283
3105.16790	0.16310
3103.23922	0.16337
3101.31055	0.16364
3099.38187	0.16392
3097.45319	0.16419
3095.52452	0.16444
3093.59584	0.16469
3091.66717	0.16491
3089.73849	0.16515
3087.80982	0.16544
3085.88114	0.16575
3083.95246	0.16603
3082.02379	0.16628
3080.09511	0.16655
3078.16644	0.16679
3076.23776	0.16704
3074.30909	0.16732
3072.38041	0.16759
3070.45173	0.16785
3068.52306	0.16810
3066.59438	0.16837
3064.66571	0.16866
3062.73703	0.16890
3060.80836	0.16912
3058.87968	0.16935
3056.95100	0.16960
3055.02233	0.16989
3053.09365	0.17019
3051.16498	0.17045
3049.23630	0.17070
3047.30763	0.17096
3045.37895	0.17119
3043.45027	0.17142
3041.52160	0.17168
3039.59292	0.17200
3037.66425	0.17230
3035.73557	0.17254
3033.80690	0.17276
3031.87822	0.17301
3029.94954	0.17327
3028.02087	0.17353
3026.09219	0.17378
3024.16352	0.17403
3022.23484	0.17428
3020.30617	0.17452
3018.37749	0.17477
3016.44881	0.17503
3014.52014	0.17528
3012.59146	0.17552
3010.66279	0.17580
3008.73411	0.17611
3006.80544	0.17640
3004.87676	0.17664
3002.94808	0.17686
3001.01941	0.17713
2999.09073	0.17741
2997.16206	0.17766
2995.23338	0.17789
2993.30471	0.17815
2991.37603	0.17839
2989.44735	0.17859
2987.51868	0.17878
2985.59000	0.17898
2983.66133	0.17916
2981.73265	0.17930
2979.80398	0.17942
2977.87530	0.17951
2975.94662	0.17958
2974.01795	0.17960
2972.08927	0.17959
2970.16060	0.17955
2968.23192	0.17947
2966.30325	0.17946
2964.37457	0.17957
2962.44589	0.17978
2960.51722	0.18005
2958.58854	0.18035
2956.65987	0.18069
2954.73119	0.18107
2952.80252	0.18145
2950.87384	0.18178
2948.94516	0.18208
2947.01649	0.18231
2945.08781	0.18244
2943.15914	0.18252
2941.23046	0.18260
2939.30179	0.18265
2937.37311	0.18263
2935.44443	0.18255
2933.51576	0.18247
2931.58708	0.18243
2929.65841	0.18242
2927.72973	0.18239
2925.80106	0.18237
2923.87238	0.18236
2921.94370	0.18238
2920.01503	0.18251
2918.08635	0.18284
2916.15768	0.18343
2914.22900	0.18423
2912.30033	0.18513
2910.37165	0.18596
2908.44297	0.18662
2906.51430	0.18712
2904.58562	0.18758
2902.65695	0.18804
2900.72827	0.18846
2898.79960	0.18883
2896.87092	0.18918
2894.94224	0.18954
2893.01357	0.18991
2891.08489	0.19031
2889.15622	0.19069
2887.22754	0.19101
2885.29887	0.19129
2883.37019	0.19157
2881.44151	0.19186
2879.51284	0.19216
2877.58416	0.19244
2875.65549	0.19269
2873.72681	0.19292
2871.79814	0.19316
2869.86946	0.19341
2867.94078	0.19366
2866.01211	0.19389
2864.08343	0.19407
2862.15476	0.19418
2860.22608	0.19421
2858.29741	0.19421
2856.36873	0.19421
2854.44005	0.19418
2852.51138	0.19418
2850.58270	0.19432
2848.65403	0.19481
2846.72535	0.19565
2844.79668	0.19660
2842.86800	0.19739
2840.93932	0.19803
2839.01065	0.19857
2837.08197	0.19903
2835.15330	0.19944
2833.22462	0.19980
2831.29595	0.20013
2829.36727	0.20047
2827.43859	0.20080
2825.50992	0.20110
2823.58124	0.20140
2821.65257	0.20170
2819.72389	0.20201
2817.79522	0.20233
2815.86654	0.20262
2813.93786	0.20289
2812.00919	0.20317
2810.08051	0.20348
2808.15184	0.20380
2806.22316	0.20412
2804.29449	0.20445
2802.36581	0.20474
2800.43713	0.20501
2798.50846	0.20532
2796.57978	0.20564
2794.65111	0.20591
2792.72243	0.20614
2790.79376	0.20638
2788.86508	0.20666
2786.93640	0.20696
2785.00773	0.20728
2783.07905	0.20759
2781.15038	0.20791
2779.22170	0.20821
2777.29303	0.20848
2775.36435	0.20872
2773.43567	0.20895
2771.50700	0.20920
2769.57832	0.20946
2767.64965	0.20974
2765.72097	0.21005
2763.79230	0.21038
2761.86362	0.21069
2759.93494	0.21098
2758.00627	0.21125
2756.07759	0.21151
2754.14892	0.21178
2752.22024	0.21205
2750.29157	0.21231
2748.36289	0.21259
2746.43421	0.21288
2744.50554	0.21318
2742.57686	0.21346
2740.64819	0.21371
2738.71951	0.21396
2736.79084	0.21423
2734.86216	0.21451
2732.93348	0.21478
2731.00481	0.21503
2729.07613	0.21530
2727.14746	0.21561
2725.21878	0.21590
2723.29011	0.21616
2721.36143	0.21640
2719.43275	0.21666
2717.50408	0.21696
2715.57540	0.21726
2713.64673	0.21754
2711.71805	0.21778
2709.78938	0.21803
2707.86070	0.21830
2705.93202	0.21858
2704.00335	0.21887
2702.07467	0.21916
2700.14600	0.21945
2698.21732	0.21973
2696.28865	0.21999
2694.35997	0.22024
2692.43129	0.22047
2690.50262	0.22069
2688.57394	0.22096
2686.64527	0.22125
2684.71659	0.22154
2682.78792	0.22181
2680.85924	0.22208
2678.93056	0.22236
2677.00189	0.22263
2675.07321	0.22287
2673.14454	0.22313
2671.21586	0.22343
2669.28719	0.22371
2667.35851	0.22396
2665.42983	0.22422
2663.50116	0.22450
2661.57248	0.22480
2659.64381	0.22510
2657.71513	0.22538
2655.78646	0.22566
2653.85778	0.22595
2651.92910	0.22624
2650.00043	0.22653
2648.07175	0.22680
2646.14308	0.22708
2644.21440	0.22739
2642.28573	0.22769
2640.35705	0.22797
2638.42837	0.22827
2636.49970	0.22859
2634.57102	0.22890
2632.64235	0.22918
2630.71367	0.22945
2628.78500	0.22973
2626.85632	0.23001
2624.92764	0.23029
2622.99897	0.23060
2621.07029	0.23090
2619.14162	0.23117
2617.21294	0.23145
2615.28427	0.23177
2613.35559	0.23212
2611.42691	0.23247
2609.49824	0.23278
2607.56956	0.23302
2605.64089	0.23326
2603.71221	0.23357
2601.78354	0.23391
2599.85486	0.23422
2597.92618	0.23447
2595.99751	0.23472
2594.06883	0.23499
2592.14016	0.23529
2590.21148	0.23562
2588.28281	0.23593
2586.35413	0.23620
2584.42545	0.23649
2582.49678	0.23680
2580.56810	0.23708
2578.63943	0.23735
2576.71075	0.23760
2574.78208	0.23785
2572.85340	0.23812
2570.92472	0.23840
2568.99605	0.23867
2567.06737	0.23895
2565.13870	0.23925
2563.21002	0.23954
2561.28135	0.23981
2559.35267	0.24007
2557.42399	0.24032
2555.49532	0.24060
2553.56664	0.24093
2551.63797	0.24123
2549.70929	0.24149
2547.78062	0.24174
2545.85194	0.24199
2543.92326	0.24230
2541.99459	0.24262
2540.06591	0.24291
2538.13724	0.24317
2536.20856	0.24344
2534.27989	0.24372
2532.35121	0.24402
2530.42253	0.24432
2528.49386	0.24460
2526.56518	0.24489
2524.63651	0.24523
2522.70783	0.24555
2520.77916	0.24581
2518.85048	0.24606
2516.92181	0.24633
2514.99313	0.24661
2513.06445	0.24694
2511.13578	0.24730
2509.20710	0.24764
2507.27843	0.24793
2505.34975	0.24821
2503.42108	0.24852
2501.49240	0.24884
2499.56372	0.24914
2497.63505	0.24944
2495.70637	0.24973
2493.77770	0.25003
2491.84902	0.25035
2489.92035	0.25069
2487.99167	0.25103
2486.06299	0.25133
2484.13432	0.25165
2482.20564	0.25199
2480.27697	0.25232
2478.34829	0.25261
2476.41962	0.25287
2474.49094	0.25315
2472.56226	0.25347
2470.63359	0.25381
2468.70491	0.25414
2466.77624	0.25444
2464.84756	0.25471
2462.91889	0.25498
2460.99021	0.25528
2459.06153	0.25557
2457.13286	0.25585
2455.20418	0.25613
2453.27551	0.25641
2451.34683	0.25671
2449.41816	0.25706
2447.48948	0.25743
2445.56080	0.25777
2443.63213	0.25807
2441.70345	0.25835
2439.77478	0.25863
2437.84610	0.25892
2435.91743	0.25923
2433.98875	0.25953
2432.06007	0.25983
2430.13140	0.26015
2428.20272	0.26045
2426.27405	0.26073
2424.34537	0.26103
2422.41670	0.26136
2420.48802	0.26170
2418.55934	0.26199
2416.63067	0.26224
2414.70199	0.26253
2412.77332	0.26286
2410.84464	0.26318
2408.91597	0.26347
2406.98729	0.26374
2405.05861	0.26402
2403.12994	0.26432
2401.20126	0.26462
2399.27259	0.26491
2397.34391	0.26522
2395.41524	0.26552
2393.48656	0.26580
2391.55788	0.26609
2389.62921	0.26638
2387.70053	0.26666
2385.77186	0.26693
2383.84318	0.26717
2381.91451	0.26737
2379.98583	0.26750
2378.05715	0.26760
2376.12848	0.26767
2374.19980	0.26770
2372.27113	0.26773
2370.34245	0.26778
2368.41378	0.26787
2366.48510	0.26798
2364.55642	0.26813
2362.62775	0.26837
2360.69907	0.26870
2358.77040	0.26907
2356.84172	0.26949
2354.91305	0.26999
2352.98437	0.27060
2351.05569	0.27124
2349.12702	0.27171
2347.19834	0.27187
2345.26967	0.27187
2343.34099	0.27196
2341.41232	0.27217
2339.48364	0.27244
2337.55496	0.27274
2335.62629	0.27306
2333.69761	0.27339
2331.76894	0.27373
2329.84026	0.27410
2327.91159	0.27448
2325.98291	0.27486
2324.05423	0.27521
2322.12556	0.27557
2320.19688	0.27597
2318.26821	0.27637
2316.33953	0.27676
2314.41086	0.27716
2312.48218	0.27760
2310.55350	0.27804
2308.62483	0.27844
2306.69615	0.27880
2304.76748	0.27914
2302.83880	0.27950
2300.91013	0.27988
2298.98145	0.28025
2297.05277	0.28057
2295.12410	0.28086
2293.19542	0.28118
2291.26675	0.28151
2289.33807	0.28179
2287.40940	0.28207
2285.48072	0.28237
2283.55204	0.28268
2281.62337	0.28298
2279.69469	0.28329
2277.76602	0.28360
2275.83734	0.28390
2273.90867	0.28421
2271.97999	0.28454
2270.05131	0.28484
2268.12264	0.28511
2266.19396	0.28541
2264.26529	0.28571
2262.33661	0.28602
2260.40794	0.28632
2258.47926	0.28661
2256.55058	0.28688
2254.62191	0.28717
2252.69323	0.28748
2250.76456	0.28781
2248.83588	0.28813
2246.90721	0.28843
2244.97853	0.28873
2243.04985	0.28905
2241.12118	0.28936
2239.19250	0.28963
2237.26383	0.28990
2235.33515	0.29019
2233.40648	0.29048
2231.47780	0.29077
2229.54912	0.29107
2227.62045	0.29137
2225.69177	0.29168
2223.76310	0.29199
2221.83442	0.29229
2219.90575	0.29257
2217.97707	0.29284
2216.04839	0.29313
2214.11972	0.29344
2212.19104	0.29374
2210.26237	0.29401
2208.33369	0.29429
2206.40502	0.29460
2204.47634	0.29492
2202.54766	0.29522
2200.61899	0.29549
2198.69031	0.29575
2196.76164	0.29604
2194.83296	0.29634
2192.90429	0.29662
2190.97561	0.29687
2189.04693	0.29714
2187.11826	0.29744
2185.18958	0.29777
2183.26091	0.29808
2181.33223	0.29834
2179.40356	0.29862
2177.47488	0.29896
2175.54620	0.29932
2173.61753	0.29962
2171.68885	0.29988
2169.76018	0.30015
2167.83150	0.30047
2165.90283	0.30085
2163.97415	0.30121
2162.04547	0.30152
2160.11680	0.30182
2158.18812	0.30215
2156.25945	0.30248
2154.33077	0.30275
2152.40210	0.30298
2150.47342	0.30325
2148.54474	0.30356
2146.61607	0.30388
2144.68739	0.30419
2142.75872	0.30446
2140.83004	0.30475
2138.90137	0.30508
2136.97269	0.30540
2135.04401	0.30569
2133.11534	0.30597
2131.18666	0.30625
2129.25799	0.30656
2127.32931	0.30687
2125.40064	0.30716
2123.47196	0.30747
2121.54328	0.30780
2119.61461	0.30810
2117.68593	0.30837
2115.75726	0.30864
2113.82858	0.30894
2111.89991	0.30930
2109.97123	0.30965
2108.04255	0.30996
2106.11388	0.31023
2104.18520	0.31049
2102.25653	0.31078
2100.32785	0.31114
2098.39918	0.31151
2096.47050	0.31185
2094.54182	0.31215
2092.61315	0.31242
2090.68447	0.31269
2088.75580	0.31297
2086.82712	0.31326
2084.89845	0.31357
2082.96977	0.31389
2081.04109	0.31419
2079.11242	0.31449
2077.18374	0.31480
2075.25507	0.31511
2073.32639	0.31542
2071.39772	0.31573
2069.46904	0.31604
2067.54036	0.31636
2065.61169	0.31664
2063.68301	0.31692
2061.75434	0.31720
2059.82566	0.31750
2057.89699	0.31782
2055.96831	0.31813
2054.03963	0.31843
2052.11096	0.31871
2050.18228	0.31899
2048.25361	0.31931
2046.32493	0.31965
2044.39626	0.31994
2042.46758	0.32024
2040.53890	0.32058
2038.61023	0.32093
2036.68155	0.32123
2034.75288	0.32154
2032.82420	0.32185
2030.89553	0.32215
2028.96685	0.32244
2027.03817	0.32271
2025.10950	0.32298
2023.18082	0.32327
2021.25215	0.32357
2019.32347	0.32385
2017.39480	0.32415
2015.46612	0.32451
2013.53744	0.32489
2011.60877	0.32524
2009.68009	0.32557
2007.75142	0.32585
2005.82274	0.32609
2003.89407	0.32634
2001.96539	0.32664
2000.03671	0.32694
1998.10804	0.32723
1996.17936	0.32752
1994.25069	0.32777
1992.32201	0.32800
1990.39334	0.32831
1988.46466	0.32866
1986.53598	0.32897
1984.60731	0.32924
1982.67863	0.32949
1980.74996	0.32976
1978.82128	0.33002
1976.89261	0.33025
1974.96393	0.33052
1973.03525	0.33082
1971.10658	0.33104
1969.17790	0.33121
1967.24923	0.33145
1965.32055	0.33180
1963.39188	0.33216
1961.46320	0.33244
1959.53452	0.33265
1957.60585	0.33289
1955.67717	0.33318
1953.74850	0.33351
1951.81982	0.33385
1949.89115	0.33418
1947.96247	0.33446
1946.03379	0.33467
1944.10512	0.33485
1942.17644	0.33511
1940.24777	0.33550
1938.31909	0.33591
1936.39042	0.33629
1934.46174	0.33663
1932.53306	0.33692
1930.60439	0.33716
1928.67571	0.33741
1926.74704	0.33772
1924.81836	0.33795
1922.88969	0.33813
1920.96101	0.33831
1919.03233	0.33847
1917.10366	0.33884
1915.17498	0.33943
1913.24631	0.33985
1911.31763	0.34008
1909.38896	0.34033
1907.46028	0.34068
1905.53160	0.34103
1903.60293	0.34132
1901.67425	0.34159
1899.74558	0.34190
1897.81690	0.34220
1895.88823	0.34243
1893.95955	0.34262
1892.03087	0.34277
1890.10220	0.34293
1888.17352	0.34328
1886.24485	0.34372
1884.31617	0.34406
1882.38750	0.34435
1880.45882	0.34469
1878.53014	0.34502
1876.60147	0.34531
1874.67279	0.34557
1872.74412	0.34572
1870.81544	0.34569
1868.88677	0.34576
1866.95809	0.34622
1865.02941	0.34683
1863.10074	0.34728
1861.17206	0.34763
1859.24339	0.34796
1857.31471	0.34832
1855.38604	0.34870
1853.45736	0.34901
1851.52868	0.34925
1849.60001	0.34942
1847.67133	0.34944
1845.74266	0.34929
1843.81398	0.34946
1841.88531	0.35021
1839.95663	0.35095
1838.02795	0.35134
1836.09928	0.35162
1834.17060	0.35185
1832.24193	0.35184
1830.31325	0.35183
1828.38458	0.35214
1826.45590	0.35259
1824.52722	0.35303
1822.59855	0.35354
1820.66987	0.35396
1818.74120	0.35424
1816.81252	0.35455
1814.88385	0.35484
1812.95517	0.35498
1811.02649	0.35509
1809.09782	0.35538
1807.16914	0.35575
1805.24047	0.35598
1803.31179	0.35602
1801.38312	0.35608
1799.45444	0.35639
1797.52576	0.35678
1795.59709	0.35691
1793.66841	0.35678
1791.73974	0.35689
1789.81106	0.35750
1787.88239	0.35803
1785.95371	0.35817
1784.02503	0.35829
1782.09636	0.35856
1780.16768	0.35889
1778.23901	0.35922
1776.31033	0.35929
1774.38166	0.35895
1772.45298	0.35868
1770.52430	0.35890
1768.59563	0.35943
1766.66695	0.36005
1764.73828	0.36050
1762.80960	0.36061
1760.88093	0.36076
1758.95225	0.36096
1757.02357	0.36105
1755.09490	0.36108
1753.16622	0.36077
1751.23755	0.36032
1749.30887	0.36034
1747.38020	0.36073
1745.45152	0.36102
1743.52284	0.36106
1741.59417	0.36099
1739.66549	0.36103
1737.73682	0.36101
1735.80814	0.36052
1733.87947	0.36032
1731.95079	0.36117
1730.02211	0.36228
1728.09344	0.36306
1726.16476	0.36354
1724.23609	0.36381
1722.30741	0.36388
1720.37874	0.36350
1718.45006	0.36289
1716.52138	0.36294
1714.59271	0.36378
1712.66403	0.36475
1710.73536	0.36532
1708.80668	0.36530
1706.87801	0.36502
1704.94933	0.36487
1703.02065	0.36446
1701.09198	0.36377
1699.16330	0.36374
1697.23463	0.36421
1695.30595	0.36476
1693.37728	0.36555
1691.44860	0.36602
1689.51992	0.36591
1687.59125	0.36546
1685.66257	0.36469
1683.73390	0.36447
1681.80522	0.36524
1679.87655	0.36606
1677.94787	0.36617
1676.01919	0.36588
1674.09052	0.36586
1672.16184	0.36589
1670.23317	0.36578
1668.30449	0.36613
1666.37582	0.36681
1664.44714	0.36705
1662.51846	0.36710
1660.58979	0.36745
1658.66111	0.36769
1656.73244	0.36708
1654.80376	0.36568
1652.87509	0.36511
1650.94641	0.36598
1649.01773	0.36665
1647.08906	0.36670
1645.16038	0.36722
1643.23171	0.36806
1641.30303	0.36848
1639.37436	0.36825
1637.44568	0.36760
1635.51700	0.36741
1633.58833	0.36815
1631.65965	0.36897
1629.73098	0.36909
1627.80230	0.36880
1625.87363	0.36833
1623.94495	0.36766
1622.01627	0.36716
1620.08760	0.36702
1618.15892	0.36728
1616.23025	0.36829
1614.30157	0.36984
1612.37290	0.37102
1610.44422	0.37160
1608.51554	0.37205
1606.58687	0.37253
1604.65819	0.37293
1602.72952	0.37333
1600.80084	0.37378
1598.87217	0.37415
1596.94349	0.37441
1595.01481	0.37468
1593.08614	0.37499
1591.15746	0.37529
1589.22879	0.37562
1587.30011	0.37600
1585.37144	0.37636
1583.44276	0.37664
1581.51408	0.37685
1579.58541	0.37683
1577.65673	0.37653
1575.72806	0.37661
1573.79938	0.37719
1571.87071	0.37743
1569.94203	0.37738
1568.01335	0.37775
1566.08468	0.37833
1564.15600	0.37860
1562.22733	0.37810
1560.29865	0.37698
1558.36998	0.37667
1556.44130	0.37776
1554.51262	0.37911
1552.58395	0.37991
1550.65527	0.38030
1548.72660	0.38054
1546.79792	0.38048
1544.86925	0.37994
1542.94057	0.37925
1541.01189	0.37898
1539.08322	0.37964
1537.15454	0.38077
1535.22587	0.38129
1533.29719	0.38143
1531.36852	0.38187
1529.43984	0.38218
1527.51116	0.38209
1525.58249	0.38187
1523.65381	0.38140
1521.72514	0.38095
1519.79646	0.38119
1517.86779	0.38186
1515.93911	0.38249
1514.01043	0.38300
1512.08176	0.38313
1510.15308	0.38269
1508.22441	0.38205
1506.29573	0.38224
1504.36706	0.38348
1502.43838	0.38448
1500.50970	0.38448
1498.58103	0.38415
1496.65235	0.38428
1494.72368	0.38482
1492.79500	0.38497
1490.86633	0.38455
1488.93765	0.38442
1487.00897	0.38493
1485.08030	0.38555
1483.15162	0.38584
1481.22295	0.38587
1479.29427	0.38570
1477.36560	0.38516
1475.43692	0.38439
1473.50824	0.38377
1471.57957	0.38374
1469.65089	0.38414
1467.72222	0.38424
1465.79354	0.38400
1463.86487	0.38404
1461.93619	0.38418
1460.00751	0.38357
1458.07884	0.38260
1456.15016	0.38274
1454.22149	0.38394
1452.29281	0.38484
1450.36414	0.38506
1448.43546	0.38512
1446.50678	0.38544
1444.57811	0.38591
1442.64943	0.38620
1440.72076	0.38610
1438.79208	0.38547
1436.86341	0.38496
1434.93473	0.38537
1433.00605	0.38600
1431.07738	0.38609
1429.14870	0.38608
1427.22003	0.38619
1425.29135	0.38612
1423.36268	0.38580
1421.43400	0.38518
1419.50532	0.38457
1417.57665	0.38465
1415.64797	0.38522
1413.71930	0.38558
1411.79062	0.38565
1409.86195	0.38562
1407.93327	0.38548
1406.00459	0.38528
1404.07592	0.38522
1402.14724	0.38514
1400.21857	0.38482
1398.28989	0.38448
1396.36122	0.38436
1394.43254	0.38449
1392.50386	0.38475
1390.57519	0.38466
1388.64651	0.38400
1386.71784	0.38332
1384.78916	0.38308
1382.86049	0.38323
1380.93181	0.38346
1379.00313	0.38351
1377.07446	0.38333
1375.14578	0.38312
1373.21711	0.38315
1371.28843	0.38332
1369.35976	0.38333
1367.43108	0.38323
1365.50240	0.38298
1363.57373	0.38261
1361.64505	0.38254
1359.71638	0.38282
1357.78770	0.38306
1355.85903	0.38314
1353.93035	0.38321
1352.00167	0.38329
1350.07300	0.38337
1348.14432	0.38353
1346.21565	0.38377
1344.28697	0.38393
1342.35830	0.38383
1340.42962	0.38357
1338.50094	0.38345
1336.57227	0.38353
1334.64359	0.38361
1332.71492	0.38362
1330.78624	0.38357
1328.85757	0.38348
1326.92889	0.38337
1325.00021	0.38324
1323.07154	0.38309
1321.14286	0.38291
1319.21419	0.38273
1317.28551	0.38260
1315.35684	0.38247
1313.42816	0.38229
1311.49948	0.38212
1309.57081	0.38192
1307.64213	0.38160
1305.71346	0.38121
1303.78478	0.38082
1301.85611	0.38045
1299.92743	0.38008
1297.99875	0.37969
1296.07008	0.37931
1294.14140	0.37892
1292.21273	0.37848
1290.28405	0.37802
1288.35538	0.37756
1286.42670	0.37710
1284.49802	0.37661
1282.56935	0.37605
1280.64067	0.37543
1278.71200	0.37476
1276.78332	0.37397
1274.85465	0.37300
1272.92597	0.37186
1270.99729	0.37050
1269.06862	0.36882
1267.13994	0.36690
1265.21127	0.36511
1263.28259	0.36382
1261.35392	0.36320
1259.42524	0.36315
1257.49656	0.36342
1255.56789	0.36371
1253.63921	0.36377
1251.71054	0.36347
1249.78186	0.36292
1247.85319	0.36227
1245.92451	0.36153
1243.99583	0.36066
1242.06716	0.35976
1240.13848	0.35886
1238.20981	0.35791
1236.28113	0.35693
1234.35246	0.35590
1232.42378	0.35484
1230.49510	0.35379
1228.56643	0.35282
1226.63775	0.35189
1224.70908	0.35093
1222.78040	0.34996
1220.85173	0.34907
1218.92305	0.34823
1216.99437	0.34731
1215.06570	0.34629
1213.13702	0.34525
1211.20835	0.34427
1209.27967	0.34333
1207.35100	0.34241
1205.42232	0.34148
1203.49364	0.34058
1201.56497	0.33972
1199.63629	0.33886
1197.70762	0.33803
1195.77894	0.33717
1193.85027	0.33619
1191.92159	0.33511
1189.99291	0.33400
1188.06424	0.33286
1186.13556	0.33165
1184.20689	0.33035
1182.27821	0.32900
1180.34954	0.32767
1178.42086	0.32632
1176.49218	0.32489
1174.56351	0.32345
1172.63483	0.32205
1170.70616	0.32063
1168.77748	0.31917
1166.84881	0.31772
1164.92013	0.31627
1162.99145	0.31487
1161.06278	0.31352
1159.13410	0.31220
1157.20543	0.31088
1155.27675	0.30960
1153.34808	0.30834
1151.41940	0.30711
1149.49072	0.30589
1147.56205	0.30472
1145.63337	0.30359
1143.70470	0.30248
1141.77602	0.30137
1139.84735	0.30020
1137.91867	0.29901
1135.98999	0.29782
1134.06132	0.29657
1132.13264	0.29524
1130.20397	0.29388
1128.27529	0.29247
1126.34662	0.29100
1124.41794	0.28951
1122.48926	0.28806
1120.56059	0.28662
1118.63191	0.28512
1116.70324	0.28354
1114.77456	0.28192
1112.84589	0.28032
1110.91721	0.27877
1108.98853	0.27727
1107.05986	0.27577
1105.13118	0.27433
1103.20251	0.27294
1101.27383	0.27155
1099.34516	0.27017
1097.41648	0.26884
1095.48780	0.26757
1093.55913	0.26639
1091.63045	0.26529
1089.70178	0.26419
1087.77310	0.26308
1085.84443	0.26201
1083.91575	0.26095
1081.98707	0.25988
1080.05840	0.25883
1078.12972	0.25787
1076.20105	0.25702
1074.27237	0.25633
1072.34370	0.25581
1070.41502	0.25541
1068.48634	0.25514
1066.55767	0.25500
1064.62899	0.25497
1062.70032	0.25504
1060.77164	0.25514
1058.84297	0.25532
1056.91429	0.25563
1054.98561	0.25604
1053.05694	0.25650
1051.12826	0.25699
1049.19959	0.25749
1047.27091	0.25803
1045.34224	0.25863
1043.41356	0.25929
1041.48488	0.26003
1039.55621	0.26080
1037.62753	0.26153
1035.69886	0.26226
1033.77018	0.26302
1031.84151	0.26385
1029.91283	0.26472
1027.98415	0.26554
1026.05548	0.26626
1024.12680	0.26701
1022.19813	0.26789
1020.26945	0.26886
1018.34078	0.26993
1016.41210	0.27110
1014.48342	0.27234
1012.55475	0.27364
1010.62607	0.27499
1008.69740	0.27642
1006.76872	0.27785
1004.84005	0.27918
1002.91137	0.28032
1000.98269	0.28133
999.05402	0.28231
997.12534	0.28324
995.19667	0.28396
993.26799	0.28453
991.33932	0.28507
989.41064	0.28565
987.48196	0.28632
985.55329	0.28701
983.62461	0.28752
981.69594	0.28784
979.76726	0.28811
977.83859	0.28833
975.90991	0.28842
973.98123	0.28845
972.05256	0.28845
970.12388	0.28839
968.19521	0.28830
966.26653	0.28817
964.33786	0.28799
962.40918	0.28776
960.48050	0.28746
958.55183	0.28713
956.62315	0.28681
954.69448	0.28641
952.76580	0.28594
950.83713	0.28548
948.90845	0.28503
946.97977	0.28448
945.05110	0.28382
943.12242	0.28315
941.19375	0.28246
939.26507	0.28179
937.33640	0.28116
935.40772	0.28052
933.47904	0.27990
931.55037	0.27932
929.62169	0.27869
927.69302	0.27793
925.76434	0.27717
923.83567	0.27647
921.90699	0.27580
919.97831	0.27516
918.04964	0.27443
916.12096	0.27356
914.19229	0.27271
912.26361	0.27196
910.33494	0.27117
908.40626	0.27032
906.47758	0.26943
904.54891	0.26855
902.62023	0.26768
900.69156	0.26681
898.76288	0.26590
896.83421	0.26497
894.90553	0.26408
892.97685	0.26324
891.04818	0.26237
889.11950	0.26147
887.19083	0.26051
885.26215	0.25960
883.33348	0.25876
881.40480	0.25793
879.47612	0.25707
877.54745	0.25626
875.61877	0.25551
873.69010	0.25480
871.76142	0.25405
869.83275	0.25326
867.90407	0.25246
865.97539	0.25165
864.04672	0.25082
862.11804	0.24997
860.18937	0.24910
858.26069	0.24819
856.33202	0.24728
854.40334	0.24642
852.47466	0.24558
850.54599	0.24471
848.61731	0.24377
846.68864	0.24282
844.75996	0.24190
842.83129	0.24101
840.90261	0.24008
838.97394	0.23917
837.04526	0.23827
835.11658	0.23736
833.18791	0.23640
831.25923	0.23537
829.33056	0.23427
827.40188	0.23311
825.47321	0.23196
823.54453	0.23086
821.61585	0.22977
819.68718	0.22873
817.75850	0.22777
815.82983	0.22683
813.90115	0.22589
811.97248	0.22493
810.04380	0.22394
808.11512	0.22292
806.18645	0.22201
804.25777	0.22124
802.32910	0.22053
800.40042	0.21988
798.47175	0.21931
796.54307	0.21884
794.61439	0.21854
792.68572	0.21830
790.75704	0.21800
788.82837	0.21767
786.89969	0.21730
784.97102	0.21695
783.04234	0.21660
781.11366	0.21619
779.18499	0.21573
777.25631	0.21526
775.32764	0.21473
773.39896	0.21418
771.47029	0.21368
769.54161	0.21320
767.61293	0.21267
765.68426	0.21208
763.75558	0.21139
761.82691	0.21060
759.89823	0.20979
757.96956	0.20899
756.04088	0.20813
754.11220	0.20718
752.18353	0.20621
750.25485	0.20530
748.32618	0.20436
746.39750	0.20338
744.46883	0.20249
742.54015	0.20168
740.61147	0.20086
738.68280	0.20005
736.75412	0.19929
734.82545	0.19859
732.89677	0.19784
730.96810	0.19706
729.03942	0.19636
727.11074	0.19572
725.18207	0.19499
723.25339	0.19419
721.32472	0.19339
719.39604	0.19262
717.46737	0.19187
715.53869	0.19111
713.61001	0.19029
711.68134	0.18947
709.75266	0.18870
707.82399	0.18798
705.89531	0.18724
703.96664	0.18638
702.03796	0.18545
700.10928	0.18466
698.18061	0.18397
696.25193	0.18319
694.32326	0.18233
692.39458	0.18151
690.46591	0.18076
688.53723	0.17998
686.60855	0.17910
684.67988	0.17816
682.75120	0.17717
680.82253	0.17608
678.89385	0.17497
676.96518	0.17386
675.03650	0.17263
673.10782	0.17119
671.17915	0.16958
669.25047	0.16787
667.32180	0.16634
665.39312	0.16502
663.46445	0.16358
661.53577	0.16201
659.60709	0.16051
657.67842	0.15915
655.74974	0.15789
653.82107	0.15652
651.89239	0.15497
649.96372	0.15336
648.03504	0.15178
646.10636	0.15022
644.17769	0.14857
642.24901	0.14681
640.32034	0.14499
638.39166	0.14317
636.46299	0.14133
634.53431	0.13950
632.60563	0.13775
630.67696	0.13609
628.74828	0.13441
626.81961	0.13266
624.89093	0.13092
622.96226	0.12921
621.03358	0.12753
619.10490	0.12583
617.17623	0.12411
615.24755	0.12232
613.31888	0.12043
611.39020	0.11861
609.46153	0.11693
607.53285	0.11536
605.60417	0.11384
603.67550	0.11232
601.74682	0.11073
599.81815	0.10906
597.88947	0.10749
595.96080	0.10624
594.03212	0.10523
592.10344	0.10425
590.17477	0.10322
588.24609	0.10211
586.31742	0.10093
584.38874	0.09973
582.46007	0.09856
580.53139	0.09745
578.60271	0.09638
576.67404	0.09535
574.74536	0.09434
572.81669	0.09336
570.88801	0.09241
568.95934	0.09151
567.03066	0.09066
565.10198	0.08984
563.17331	0.08906
561.24463	0.08830
559.31596	0.08745
557.38728	0.08663
555.45861	0.08592
553.52993	0.08530
551.60125	0.08475
549.67258	0.08417
547.74390	0.08353
545.81523	0.08298
543.88655	0.08254
541.95788	0.08209
540.02920	0.08159
538.10052	0.08112
536.17185	0.08063
534.24317	0.08008
532.31450	0.07957
530.38582	0.07907
528.45715	0.07843
526.52847	0.07773
524.59979	0.07705
522.67112	0.07630
520.74244	0.07542
518.81377	0.07454
516.88509	0.07372
514.95642	0.07283
513.02774	0.07193
511.09906	0.07112
509.17039	0.07033
507.24171	0.06959
505.31304	0.06887
503.38436	0.06803
501.45569	0.06695
499.52701	0.06568
497.59833	0.06436
495.66966	0.06302
493.74098	0.06173
491.81231	0.06056
489.88363	0.05941
487.95496	0.05822
486.02628	0.05708
484.09760	0.05594
482.16893	0.05470
480.24025	0.05343
478.31158	0.05216
476.38290	0.05089
474.45423	0.04971
472.52555	0.04869
470.59687	0.04775
468.66820	0.04686
466.73952	0.04607
464.81085	0.04543
462.88217	0.04495
460.95350	0.04461
459.02482	0.04438
457.09614	0.04427
455.16747	0.04419
453.23879	0.04408
451.31012	0.04398
449.38144	0.04385
447.45277	0.04353
445.52409	0.04299
443.59541	0.04240
441.66674	0.04184
439.73806	0.04127
437.80939	0.04065
435.88071	0.03980
433.95204	0.03874
432.02336	0.03762
430.09468	0.03656
428.16601	0.03543
426.23733	0.03409
424.30866	0.03263
422.37998	0.03126
420.45131	0.02995
418.52263	0.02859
416.59395	0.02724
414.66528	0.02608
412.73660	0.02507
410.80793	0.02399
408.87925	0.02280
406.95058	0.02165
405.02190	0.02055
403.09322	0.01935
401.16455	0.01814
399.23587	0.01709
397.30720	0.01613
395.37852	0.01512
393.44985	0.01411
391.52117	0.01316
389.59249	0.01228
387.66382	0.01146
385.73514	0.01061
383.80647	0.00976
381.87779	0.00896
379.94912	0.00818
378.02044	0.00749
376.09176	0.00687
374.16309	0.00630
372.23441	0.00582
370.30574	0.00533
368.37706	0.00477
