7496.76250	0.001863
7494.83382	0.001872
7492.90514	0.001827
7490.97647	0.001797
7489.04779	0.001829
7487.11912	0.001860
7485.19044	0.001853
7483.26177	0.001853
7481.33309	0.001883
7479.40441	0.001885
7477.47574	0.001853
7475.54706	0.001862
7473.61839	0.001911
7471.68971	0.001915
7469.76104	0.001870
7467.83236	0.001863
7465.90368	0.001899
7463.97501	0.001908
7462.04633	0.001897
7460.11766	0.001916
7458.18898	0.001943
7456.26031	0.001930
7454.33163	0.001917
7452.40295	0.001960
7450.47428	0.002012
7448.54560	0.001989
7446.61693	0.001923
7444.68825	0.001904
7442.75958	0.001932
7440.83090	0.001941
7438.90222	0.001931
7436.97355	0.001952
7435.04487	0.001988
7433.11620	0.001978
7431.18752	0.001951
7429.25885	0.001983
7427.33017	0.002038
7425.40149	0.002033
7423.47282	0.002004
7421.54414	0.002024
7419.61547	0.002041
7417.68679	0.002007
7415.75812	0.002000
7413.82944	0.002054
7411.90076	0.002079
7409.97209	0.002047
7408.04341	0.002029
7406.11474	0.002061
7404.18606	0.002075
7402.25739	0.002032
7400.32871	0.002016
7398.40003	0.002065
7396.47136	0.002085
7394.54268	0.002046
7392.61401	0.002043
7390.68533	0.002097
7388.75666	0.002115
7386.82798	0.002078
7384.89930	0.002072
7382.97063	0.002131
7381.04195	0.002163
7379.11328	0.002122
7377.18460	0.002089
7375.25593	0.002108
7373.32725	0.002113
7371.39857	0.002084
7369.46990	0.002103
7367.54122	0.002166
7365.61255	0.002174
7363.68387	0.002139
7361.75520	0.002145
7359.82652	0.002167
7357.89784	0.002141
7355.96917	0.002108
7354.04049	0.002148
7352.11182	0.002212
7350.18314	0.002207
7348.25447	0.002165
7346.32579	0.002167
7344.39711	0.002189
7342.46844	0.002185
7340.53976	0.002185
7338.61109	0.002221
7336.68241	0.002253
7334.75374	0.002230
7332.82506	0.002195
7330.89638	0.002217
7328.96771	0.002255
7327.03903	0.002238
7325.11036	0.002205
7323.18168	0.002229
7321.25301	0.002268
7319.32433	0.002254
7317.39565	0.002236
7315.46698	0.002282
7313.53830	0.002327
7311.60963	0.002298
7309.68095	0.002259
7307.75228	0.002282
7305.82360	0.002325
7303.89492	0.002329
7301.96625	0.002321
7300.03757	0.002339
7298.10890	0.002343
7296.18022	0.002308
7294.25155	0.002297
7292.32287	0.002340
7290.39419	0.002356
7288.46552	0.002315
7286.53684	0.002303
7284.60817	0.002355
7282.67949	0.002382
7280.75082	0.002351
7278.82214	0.002345
7276.89346	0.002384
7274.96479	0.002395
7273.03611	0.002378
7271.10744	0.002405
7269.17876	0.002453
7267.25009	0.002440
7265.32141	0.002382
7263.39273	0.002377
7261.46406	0.002421
7259.53538	0.002420
7257.60671	0.002383
7255.67803	0.002397
7253.74936	0.002452
7251.82068	0.002465
7249.89200	0.002437
7247.96333	0.002445
7246.03465	0.002482
7244.10598	0.002469
7242.17730	0.002424
7240.24863	0.002442
7238.31995	0.002493
7236.39127	0.002480
7234.46260	0.002447
7232.53392	0.002485
7230.60525	0.002534
7228.67657	0.002525
7226.74790	0.002519
7224.81922	0.002562
7222.89054	0.002591
7220.96187	0.002562
7219.03319	0.002526
7217.10452	0.002533
7215.17584	0.002546
7213.24717	0.002523
7211.31849	0.002518
7209.38981	0.002569
7207.46114	0.002603
7205.53246	0.002570
7203.60379	0.002550
7201.67511	0.002587
7199.74644	0.002610
7197.81776	0.002586
7195.88908	0.002584
7193.96041	0.002630
7192.03173	0.002650
7190.10306	0.002613
7188.17438	0.002594
7186.24571	0.002625
7184.31703	0.002617
7182.38835	0.002554
7180.45968	0.002540
7178.53100	0.002604
7176.60233	0.002655
7174.67365	0.002662
7172.74498	0.002686
7170.81630	0.002726
7168.88762	0.002712
7166.95895	0.002669
7165.03027	0.002690
7163.10160	0.002743
7161.17292	0.002723
7159.24425	0.002668
7157.31557	0.002685
7155.38689	0.002745
7153.45822	0.002747
7151.52954	0.002716
7149.60087	0.002736
7147.67219	0.002782
7145.74352	0.002773
7143.81484	0.002740
7141.88616	0.002750
7139.95749	0.002775
7138.02881	0.002755
7136.10014	0.002733
7134.17146	0.002767
7132.24279	0.002813
7130.31411	0.002807
7128.38543	0.002782
7126.45676	0.002788
7124.52808	0.002793
7122.59941	0.002761
7120.67073	0.002748
7118.74206	0.002798
7116.81338	0.002839
7114.88470	0.002818
7112.95603	0.002808
7111.02735	0.002852
7109.09868	0.002875
7107.17000	0.002839
7105.24133	0.002814
7103.31265	0.002841
7101.38397	0.002863
7099.45530	0.002849
7097.52662	0.002852
7095.59795	0.002899
7093.66927	0.002924
7091.74060	0.002898
7089.81192	0.002887
7087.88324	0.002930
7085.95457	0.002956
7084.02589	0.002925
7082.09722	0.002912
7080.16854	0.002950
7078.23987	0.002954
7076.31119	0.002909
7074.38251	0.002913
7072.45384	0.002964
7070.52516	0.002960
7068.59649	0.002915
7066.66781	0.002940
7064.73914	0.003017
7062.81046	0.003028
7060.88178	0.002983
7058.95311	0.002987
7057.02443	0.003023
7055.09576	0.003008
7053.16708	0.002982
7051.23841	0.003015
7049.30973	0.003062
7047.38105	0.003050
7045.45238	0.003023
7043.52370	0.003049
7041.59503	0.003091
7039.66635	0.003081
7037.73768	0.003051
7035.80900	0.003077
7033.88032	0.003125
7031.95165	0.003117
7030.02297	0.003085
7028.09430	0.003101
7026.16562	0.003129
7024.23695	0.003106
7022.30827	0.003085
7020.37959	0.003138
7018.45092	0.003196
7016.52224	0.003167
7014.59357	0.003106
7012.66489	0.003117
7010.73622	0.003171
7008.80754	0.003173
7006.87886	0.003143
7004.95019	0.003165
7003.02151	0.003216
7001.09284	0.003217
6999.16416	0.003192
6997.23549	0.003213
6995.30681	0.003239
6993.37813	0.003226
6991.44946	0.003230
6989.52078	0.003272
6987.59211	0.003276
6985.66343	0.003229
6983.73476	0.003218
6981.80608	0.003276
6979.87740	0.003313
6977.94873	0.003281
6976.02005	0.003258
6974.09138	0.003300
6972.16270	0.003322
6970.23403	0.003284
6968.30535	0.003277
6966.37667	0.003323
6964.44800	0.003336
6962.51932	0.003305
6960.59065	0.003316
6958.66197	0.003373
6956.73330	0.003387
6954.80462	0.003353
6952.87594	0.003356
6950.94727	0.003402
6949.01859	0.003406
6947.08992	0.003367
6945.16124	0.003370
6943.23257	0.003414
6941.30389	0.003417
6939.37521	0.003380
6937.44654	0.003385
6935.51786	0.003430
6933.58919	0.003431
6931.66051	0.003404
6929.73184	0.003433
6927.80316	0.003478
6925.87448	0.003466
6923.94581	0.003436
6922.01713	0.003457
6920.08846	0.003497
6918.15978	0.003487
6916.23111	0.003465
6914.30243	0.003494
6912.37375	0.003533
6910.44508	0.003523
6908.51640	0.003512
6906.58773	0.003556
6904.65905	0.003593
6902.73038	0.003561
6900.80170	0.003531
6898.87302	0.003563
6896.94435	0.003591
6895.01567	0.003562
6893.08700	0.003535
6891.15832	0.003564
6889.22965	0.003600
6887.30097	0.003593
6885.37229	0.003588
6883.44362	0.003620
6881.51494	0.003639
6879.58627	0.003614
6877.65759	0.003608
6875.72892	0.003654
6873.80024	0.003670
6871.87156	0.003622
6869.94289	0.003611
6868.01421	0.003675
6866.08554	0.003720
6864.15686	0.003707
6862.22819	0.003714
6860.29951	0.003764
6858.37083	0.003773
6856.44216	0.003724
6854.51348	0.003705
6852.58481	0.003743
6850.65613	0.003761
6848.72746	0.003727
6846.79878	0.003725
6844.87010	0.003788
6842.94143	0.003819
6841.01275	0.003787
6839.08408	0.003792
6837.15540	0.003842
6835.22673	0.003844
6833.29805	0.003788
6831.36937	0.003771
6829.44070	0.003814
6827.51202	0.003836
6825.58335	0.003843
6823.65467	0.003904
6821.72600	0.003959
6819.79732	0.003930
6817.86864	0.003888
6815.93997	0.003918
6814.01129	0.003970
6812.08262	0.003965
6810.15394	0.003928
6808.22527	0.003931
6806.29659	0.003955
6804.36791	0.003932
6802.43924	0.003907
6800.51056	0.003958
6798.58189	0.004016
6796.65321	0.003990
6794.72454	0.003951
6792.79586	0.003987
6790.86718	0.004038
6788.93851	0.004027
6787.00983	0.004014
6785.08116	0.004067
6783.15248	0.004115
6781.22381	0.004090
6779.29513	0.004066
6777.36645	0.004106
6775.43778	0.004136
6773.50910	0.004099
6771.58043	0.004067
6769.65175	0.004103
6767.72308	0.004147
6765.79440	0.004140
6763.86572	0.004136
6761.93705	0.004186
6760.00837	0.004215
6758.07970	0.004178
6756.15102	0.004161
6754.22235	0.004205
6752.29367	0.004222
6750.36499	0.004182
6748.43632	0.004172
6746.50764	0.004211
6744.57897	0.004211
6742.65029	0.004171
6740.72162	0.004190
6738.79294	0.004265
6736.86426	0.004298
6734.93559	0.004279
6733.00691	0.004285
6731.07824	0.004314
6729.14956	0.004294
6727.22089	0.004252
6725.29221	0.004284
6723.36353	0.004356
6721.43486	0.004363
6719.50618	0.004327
6717.57751	0.004349
6715.64883	0.004406
6713.72016	0.004398
6711.79148	0.004356
6709.86280	0.004369
6707.93413	0.004402
6706.00545	0.004384
6704.07678	0.004359
6702.14810	0.004394
6700.21943	0.004448
6698.29075	0.004444
6696.36207	0.004420
6694.43340	0.004458
6692.50472	0.004506
6690.57605	0.004473
6688.64737	0.004423
6686.71870	0.004453
6684.79002	0.004503
6682.86134	0.004496
6680.93267	0.004486
6679.00399	0.004544
6677.07532	0.004599
6675.14664	0.004570
6673.21797	0.004538
6671.28929	0.004582
6669.36061	0.004616
6667.43194	0.004574
6665.50326	0.004547
6663.57459	0.004606
6661.64591	0.004671
6659.71724	0.004664
6657.78856	0.004654
6655.85988	0.004704
6653.93121	0.004732
6652.00253	0.004695
6650.07386	0.004686
6648.14518	0.004733
6646.21651	0.004746
6644.28783	0.004703
6642.35915	0.004706
6640.43048	0.004775
6638.50180	0.004800
6636.57313	0.004763
6634.64445	0.004762
6632.71578	0.004806
6630.78710	0.004821
6628.85842	0.004792
6626.92975	0.004786
6625.00107	0.004821
6623.07240	0.004831
6621.14372	0.004801
6619.21505	0.004817
6617.28637	0.004887
6615.35769	0.004917
6613.42902	0.004896
6611.50034	0.004912
6609.57167	0.004968
6607.64299	0.004979
6605.71432	0.004940
6603.78564	0.004932
6601.85696	0.004970
6599.92829	0.004969
6597.99961	0.004933
6596.07094	0.004963
6594.14226	0.005028
6592.21359	0.005026
6590.28491	0.004995
6588.35623	0.005020
6586.42756	0.005060
6584.49888	0.005038
6582.57021	0.005007
6580.64153	0.005063
6578.71286	0.005144
6576.78418	0.005134
6574.85550	0.005089
6572.92683	0.005123
6570.99815	0.005199
6569.06948	0.005211
6567.14080	0.005180
6565.21213	0.005196
6563.28345	0.005220
6561.35477	0.005179
6559.42610	0.005146
6557.49742	0.005193
6555.56875	0.005236
6553.64007	0.005200
6551.71140	0.005165
6549.78272	0.005210
6547.85404	0.005264
6545.92537	0.005247
6543.99669	0.005228
6542.06802	0.005275
6540.13934	0.005315
6538.21067	0.005286
6536.28199	0.005279
6534.35331	0.005361
6532.42464	0.005424
6530.49596	0.005387
6528.56729	0.005341
6526.63861	0.005369
6524.70994	0.005418
6522.78126	0.005426
6520.85258	0.005423
6518.92391	0.005449
6516.99523	0.005463
6515.06656	0.005434
6513.13788	0.005420
6511.20921	0.005454
6509.28053	0.005469
6507.35185	0.005439
6505.42318	0.005452
6503.49450	0.005520
6501.56583	0.005537
6499.63715	0.005501
6497.70848	0.005519
6495.77980	0.005595
6493.85112	0.005616
6491.92245	0.005570
6489.99377	0.005568
6488.06510	0.005621
6486.13642	0.005619
6484.20775	0.005577
6482.27907	0.005604
6480.35039	0.005674
6478.42172	0.005682
6476.49304	0.005650
6474.56437	0.005672
6472.63569	0.005725
6470.70702	0.005721
6468.77834	0.005695
6466.84966	0.005734
6464.92099	0.005800
6462.99231	0.005798
6461.06364	0.005766
6459.13496	0.005792
6457.20629	0.005844
6455.27761	0.005842
6453.34893	0.005834
6451.42026	0.005892
6449.49158	0.005933
6447.56291	0.005882
6445.63423	0.005834
6443.70556	0.005889
6441.77688	0.005963
6439.84820	0.005949
6437.91953	0.005923
6435.99085	0.005974
6434.06218	0.006017
6432.13350	0.005985
6430.20483	0.005957
6428.27615	0.005998
6426.34747	0.006038
6424.41880	0.006005
6422.49012	0.005988
6420.56145	0.006058
6418.63277	0.006100
6416.70410	0.006054
6414.77542	0.006037
6412.84674	0.006095
6410.91807	0.006134
6408.98939	0.006103
6407.06072	0.006082
6405.13204	0.006125
6403.20337	0.006158
6401.27469	0.006138
6399.34601	0.006147
6397.41734	0.006212
6395.48866	0.006229
6393.55999	0.006190
6391.63131	0.006210
6389.70264	0.006288
6387.77396	0.006302
6385.84528	0.006251
6383.91661	0.006262
6381.98793	0.006338
6380.05926	0.006344
6378.13058	0.006290
6376.20191	0.006317
6374.27323	0.006413
6372.34455	0.006436
6370.41588	0.006394
6368.48720	0.006422
6366.55853	0.006496
6364.62985	0.006486
6362.70118	0.006415
6360.77250	0.006416
6358.84382	0.006482
6356.91515	0.006491
6354.98647	0.006453
6353.05780	0.006482
6351.12912	0.006562
6349.20045	0.006566
6347.27177	0.006511
6345.34309	0.006532
6343.41442	0.006608
6341.48574	0.006605
6339.55707	0.006552
6337.62839	0.006583
6335.69972	0.006663
6333.77104	0.006657
6331.84236	0.006607
6329.91369	0.006641
6327.98501	0.006708
6326.05634	0.006693
6324.12766	0.006666
6322.19899	0.006731
6320.27031	0.006804
6318.34163	0.006785
6316.41296	0.006760
6314.48428	0.006812
6312.55561	0.006859
6310.62693	0.006822
6308.69826	0.006784
6306.76958	0.006837
6304.84090	0.006912
6302.91223	0.006897
6300.98355	0.006865
6299.05488	0.006919
6297.12620	0.006969
6295.19753	0.006930
6293.26885	0.006899
6291.34017	0.006959
6289.41150	0.007018
6287.48282	0.006998
6285.55415	0.006996
6283.62547	0.007075
6281.69680	0.007118
6279.76812	0.007071
6277.83944	0.007050
6275.91077	0.007107
6273.98209	0.007147
6272.05342	0.007123
6270.12474	0.007122
6268.19607	0.007180
6266.26739	0.007206
6264.33871	0.007169
6262.41004	0.007160
6260.48136	0.007209
6258.55269	0.007218
6256.62401	0.007160
6254.69534	0.007162
6252.76666	0.007251
6250.83798	0.007288
6248.90931	0.007252
6246.98063	0.007267
6245.05196	0.007332
6243.12328	0.007340
6241.19461	0.007311
6239.26593	0.007356
6237.33725	0.007435
6235.40858	0.007426
6233.47990	0.007376
6231.55123	0.007409
6229.62255	0.007483
6227.69388	0.007485
6225.76520	0.007463
6223.83652	0.007519
6221.90785	0.007592
6219.97917	0.007563
6218.05050	0.007482
6216.12182	0.007496
6214.19315	0.007587
6212.26447	0.007610
6210.33579	0.007580
6208.40712	0.007621
6206.47844	0.007699
6204.54977	0.007689
6202.62109	0.007641
6200.69242	0.007684
6198.76374	0.007771
6196.83506	0.007776
6194.90639	0.007746
6192.97771	0.007794
6191.04904	0.007852
6189.12036	0.007818
6187.19169	0.007772
6185.26301	0.007828
6183.33433	0.007911
6181.40566	0.007900
6179.47698	0.007873
6177.54831	0.007942
6175.61963	0.008012
6173.69096	0.007963
6171.76228	0.007908
6169.83360	0.007968
6167.90493	0.008029
6165.97625	0.007991
6164.04758	0.007974
6162.11890	0.008055
6160.19023	0.008102
6158.26155	0.008045
6156.33287	0.008023
6154.40420	0.008099
6152.47552	0.008146
6150.54685	0.008115
6148.61817	0.008124
6146.68950	0.008212
6144.76082	0.008248
6142.83214	0.008188
6140.90347	0.008179
6138.97479	0.008277
6137.04612	0.008316
6135.11744	0.008237
6133.18877	0.008213
6131.26009	0.008310
6129.33141	0.008372
6127.40274	0.008334
6125.47406	0.008337
6123.54539	0.008426
6121.61671	0.008465
6119.68804	0.008425
6117.75936	0.008440
6115.83068	0.008522
6113.90201	0.008533
6111.97333	0.008487
6110.04466	0.008528
6108.11598	0.008630
6106.18731	0.008637
6104.25863	0.008567
6102.32995	0.008569
6100.40128	0.008633
6098.47260	0.008643
6096.54393	0.008617
6094.61525	0.008664
6092.68658	0.008745
6090.75790	0.008734
6088.82922	0.008669
6086.90055	0.008696
6084.97187	0.008785
6083.04320	0.008794
6081.11452	0.008747
6079.18585	0.008781
6077.25717	0.008860
6075.32849	0.008849
6073.39982	0.008792
6071.47114	0.008829
6069.54247	0.008915
6067.61379	0.008914
6065.68512	0.008889
6063.75644	0.008960
6061.82776	0.009039
6059.89909	0.009000
6057.97041	0.008937
6056.04174	0.008989
6054.11306	0.009086
6052.18439	0.009088
6050.25571	0.009054
6048.32703	0.009112
6046.39836	0.009173
6044.46968	0.009118
6042.54101	0.009068
6040.61233	0.009159
6038.68366	0.009271
6036.75498	0.009260
6034.82630	0.009233
6032.89763	0.009315
6030.96895	0.009386
6029.04028	0.009329
6027.11160	0.009265
6025.18293	0.009325
6023.25425	0.009399
6021.32557	0.009370
6019.39690	0.009347
6017.46822	0.009425
6015.53955	0.009487
6013.61087	0.009453
6011.68220	0.009441
6009.75352	0.009513
6007.82484	0.009545
6005.89617	0.009479
6003.96749	0.009453
6002.03882	0.009542
6000.11014	0.009610
5998.18147	0.009587
5996.25279	0.009599
5994.32411	0.009686
5992.39544	0.009717
5990.46676	0.009660
5988.53809	0.009656
5986.60941	0.009753
5984.68074	0.009804
5982.75206	0.009757
5980.82338	0.009760
5978.89471	0.009847
5976.96603	0.009868
5975.03736	0.009801
5973.10868	0.009816
5971.18001	0.009934
5969.25133	0.009967
5967.32265	0.009892
5965.39398	0.009898
5963.46530	0.010001
5961.53663	0.010032
5959.60795	0.009992
5957.67928	0.010026
5955.75060	0.010105
5953.82192	0.010095
5951.89325	0.010033
5949.96457	0.010064
5948.03590	0.010158
5946.10722	0.010166
5944.17855	0.010134
5942.24987	0.010203
5940.32119	0.010302
5938.39252	0.010282
5936.46384	0.010220
5934.53517	0.010270
5932.60649	0.010364
5930.67782	0.010349
5928.74914	0.010282
5926.82046	0.010320
5924.89179	0.010425
5922.96311	0.010449
5921.03444	0.010424
5919.10576	0.010468
5917.17709	0.010541
5915.24841	0.010536
5913.31973	0.010492
5911.39106	0.010526
5909.46238	0.010596
5907.53371	0.010589
5905.60503	0.010567
5903.67636	0.010637
5901.74768	0.010715
5899.81900	0.010697
5897.89033	0.010668
5895.96165	0.010729
5894.03298	0.010798
5892.10430	0.010772
5890.17563	0.010739
5888.24695	0.010802
5886.31827	0.010856
5884.38960	0.010798
5882.46092	0.010760
5880.53225	0.010844
5878.60357	0.010920
5876.67490	0.010896
5874.74622	0.010893
5872.81755	0.010983
5870.88887	0.011034
5868.96019	0.010977
5867.03152	0.010953
5865.10284	0.011047
5863.17417	0.011124
5861.24549	0.011093
5859.31682	0.011080
5857.38814	0.011175
5855.45946	0.011245
5853.53079	0.011205
5851.60211	0.011181
5849.67344	0.011249
5847.74476	0.011290
5845.81609	0.011254
5843.88741	0.011264
5841.95873	0.011355
5840.03006	0.011399
5838.10138	0.011361
5836.17271	0.011365
5834.24403	0.011447
5832.31536	0.011486
5830.38668	0.011463
5828.45800	0.011496
5826.52933	0.011581
5824.60065	0.011579
5822.67198	0.011513
5820.74330	0.011541
5818.81463	0.011642
5816.88595	0.011665
5814.95727	0.011606
5813.02860	0.011614
5811.09992	0.011718
5809.17125	0.011771
5807.24257	0.011745
5805.31390	0.011786
5803.38522	0.011888
5801.45654	0.011906
5799.52787	0.011853
5797.59919	0.011868
5795.67052	0.011944
5793.74184	0.011958
5791.81317	0.011923
5789.88449	0.011966
5787.95581	0.012053
5786.02714	0.012033
5784.09846	0.011971
5782.16979	0.012038
5780.24111	0.012159
5778.31244	0.012165
5776.38376	0.012115
5774.45508	0.012159
5772.52641	0.012248
5770.59773	0.012252
5768.66906	0.012212
5766.74038	0.012257
5764.81171	0.012351
5762.88303	0.012371
5760.95435	0.012360
5759.02568	0.012424
5757.09700	0.012485
5755.16833	0.012449
5753.23965	0.012413
5751.31098	0.012475
5749.38230	0.012543
5747.45362	0.012522
5745.52495	0.012512
5743.59627	0.012599
5741.66760	0.012664
5739.73892	0.012615
5737.81025	0.012574
5735.88157	0.012646
5733.95289	0.012727
5732.02422	0.012717
5730.09554	0.012718
5728.16687	0.012807
5726.23819	0.012865
5724.30952	0.012823
5722.38084	0.012804
5720.45216	0.012887
5718.52349	0.012953
5716.59481	0.012925
5714.66614	0.012929
5712.73746	0.013030
5710.80879	0.013084
5708.88011	0.013034
5706.95143	0.013025
5705.02276	0.013126
5703.09408	0.013193
5701.16541	0.013142
5699.23673	0.013122
5697.30806	0.013221
5695.37938	0.013277
5693.45070	0.013228
5691.52203	0.013240
5689.59335	0.013351
5687.66468	0.013406
5685.73600	0.013373
5683.80733	0.013396
5681.87865	0.013512
5679.94997	0.013566
5678.02130	0.013515
5676.09262	0.013521
5674.16395	0.013613
5672.23527	0.013628
5670.30660	0.013563
5668.37792	0.013589
5666.44924	0.013701
5664.52057	0.013734
5662.59189	0.013698
5660.66322	0.013737
5658.73454	0.013819
5656.80587	0.013802
5654.87719	0.013730
5652.94851	0.013775
5651.01984	0.013901
5649.09116	0.013927
5647.16249	0.013882
5645.23381	0.013926
5643.30514	0.014016
5641.37646	0.013998
5639.44778	0.013930
5637.51911	0.013995
5635.59043	0.014139
5633.66176	0.014159
5631.73308	0.014096
5629.80441	0.014137
5627.87573	0.014233
5625.94705	0.014219
5624.01838	0.014174
5622.08970	0.014258
5620.16103	0.014365
5618.23235	0.014334
5616.30368	0.014279
5614.37500	0.014368
5612.44632	0.014492
5610.51765	0.014477
5608.58897	0.014416
5606.66030	0.014483
5604.73162	0.014591
5602.80295	0.014579
5600.87427	0.014533
5598.94559	0.014613
5597.01692	0.014730
5595.08824	0.014722
5593.15957	0.014670
5591.23089	0.014724
5589.30222	0.014804
5587.37354	0.014784
5585.44486	0.014760
5583.51619	0.014849
5581.58751	0.014931
5579.65884	0.014877
5577.73016	0.014821
5575.80149	0.014912
5573.87281	0.015006
5571.94413	0.014966
5570.01546	0.014953
5568.08678	0.015072
5566.15811	0.015141
5564.22943	0.015076
5562.30076	0.015081
5560.37208	0.015227
5558.44340	0.015303
5556.51473	0.015228
5554.58605	0.015209
5552.65738	0.015338
5550.72870	0.015415
5548.80003	0.015347
5546.87135	0.015333
5544.94267	0.015454
5543.01400	0.015524
5541.08532	0.015466
5539.15665	0.015453
5537.22797	0.015545
5535.29930	0.015581
5533.37062	0.015523
5531.44194	0.015534
5529.51327	0.015639
5527.58459	0.015675
5525.65592	0.015626
5523.72724	0.015663
5521.79857	0.015803
5519.86989	0.015859
5517.94121	0.015799
5516.01254	0.015811
5514.08386	0.015929
5512.15519	0.015976
5510.22651	0.015921
5508.29784	0.015934
5506.36916	0.016034
5504.44048	0.016054
5502.51181	0.016004
5500.58313	0.016068
5498.65446	0.016210
5496.72578	0.016227
5494.79711	0.016147
5492.86843	0.016167
5490.93975	0.016278
5489.01108	0.016314
5487.08240	0.016287
5485.15373	0.016352
5483.22505	0.016486
5481.29638	0.016513
5479.36770	0.016455
5477.43902	0.016491
5475.51035	0.016597
5473.58167	0.016607
5471.65300	0.016558
5469.72432	0.016606
5467.79565	0.016701
5465.86697	0.016678
5463.93829	0.016595
5462.00962	0.016642
5460.08094	0.016769
5458.15227	0.016793
5456.22359	0.016775
5454.29492	0.016867
5452.36624	0.016968
5450.43756	0.016922
5448.50889	0.016844
5446.58021	0.016917
5444.65154	0.017034
5442.72286	0.017015
5440.79419	0.016983
5438.86551	0.017098
5436.93683	0.017217
5435.00816	0.017198
5433.07948	0.017165
5431.15081	0.017240
5429.22213	0.017315
5427.29346	0.017278
5425.36478	0.017252
5423.43610	0.017362
5421.50743	0.017460
5419.57875	0.017411
5417.65008	0.017369
5415.72140	0.017465
5413.79273	0.017562
5411.86405	0.017541
5409.93537	0.017538
5408.00670	0.017653
5406.07802	0.017738
5404.14935	0.017702
5402.22067	0.017695
5400.29200	0.017805
5398.36332	0.017879
5396.43464	0.017828
5394.50597	0.017807
5392.57729	0.017905
5390.64862	0.017956
5388.71994	0.017892
5386.79127	0.017895
5384.86259	0.018041
5382.93391	0.018129
5381.00524	0.018052
5379.07656	0.018002
5377.14789	0.018107
5375.21921	0.018211
5373.29054	0.018197
5371.36186	0.018201
5369.43318	0.018295
5367.50451	0.018340
5365.57583	0.018286
5363.64716	0.018295
5361.71848	0.018416
5359.78981	0.018475
5357.86113	0.018411
5355.93245	0.018415
5354.00378	0.018552
5352.07510	0.018621
5350.14643	0.018555
5348.21775	0.018553
5346.28908	0.018676
5344.36040	0.018731
5342.43172	0.018668
5340.50305	0.018677
5338.57437	0.018801
5336.64570	0.018855
5334.71702	0.018824
5332.78835	0.018886
5330.85967	0.019015
5328.93099	0.019030
5327.00232	0.018973
5325.07364	0.019033
5323.14497	0.019167
5321.21629	0.019173
5319.28762	0.019094
5317.35894	0.019143
5315.43026	0.019288
5313.50159	0.019319
5311.57291	0.019272
5309.64424	0.019333
5307.71556	0.019454
5305.78689	0.019445
5303.85821	0.019370
5301.92953	0.019431
5300.00086	0.019559
5298.07218	0.019559
5296.14351	0.019508
5294.21483	0.019585
5292.28616	0.019704
5290.35748	0.019696
5288.42880	0.019651
5286.50013	0.019737
5284.57145	0.019857
5282.64278	0.019840
5280.71410	0.019778
5278.78543	0.019850
5276.85675	0.019956
5274.92807	0.019926
5272.99940	0.019884
5271.07072	0.019996
5269.14205	0.020114
5267.21337	0.020061
5265.28470	0.020003
5263.35602	0.020124
5261.42734	0.020260
5259.49867	0.020233
5257.56999	0.020182
5255.64132	0.020273
5253.71264	0.020382
5251.78397	0.020335
5249.85529	0.020269
5247.92661	0.020377
5245.99794	0.020510
5244.06926	0.020485
5242.14059	0.020453
5240.21191	0.020570
5238.28324	0.020685
5236.35456	0.020656
5234.42588	0.020644
5232.49721	0.020783
5230.56853	0.020888
5228.63986	0.020821
5226.71118	0.020769
5224.78251	0.020874
5222.85383	0.020972
5220.92515	0.020951
5218.99648	0.020964
5217.06780	0.021080
5215.13913	0.021126
5213.21045	0.021046
5211.28178	0.021034
5209.35310	0.021166
5207.42442	0.021237
5205.49575	0.021164
5203.56707	0.021169
5201.63840	0.021337
5199.70972	0.021419
5197.78105	0.021345
5195.85237	0.021353
5193.92369	0.021496
5191.99502	0.021562
5190.06634	0.021495
5188.13767	0.021491
5186.20899	0.021609
5184.28032	0.021663
5182.35164	0.021606
5180.42296	0.021638
5178.49429	0.021795
5176.56561	0.021861
5174.63694	0.021801
5172.70826	0.021836
5170.77959	0.021993
5168.85091	0.022035
5166.92223	0.021930
5164.99356	0.021923
5163.06488	0.022058
5161.13621	0.022117
5159.20753	0.022063
5157.27886	0.022109
5155.35018	0.022273
5153.42150	0.022329
5151.49283	0.022255
5149.56415	0.022271
5147.63548	0.022401
5145.70680	0.022433
5143.77813	0.022366
5141.84945	0.022415
5139.92077	0.022556
5137.99210	0.022577
5136.06342	0.022531
5134.13475	0.022617
5132.20607	0.022753
5130.27740	0.022748
5128.34872	0.022679
5126.42004	0.022745
5124.49137	0.022892
5122.56269	0.022917
5120.63402	0.022856
5118.70534	0.022911
5116.77667	0.023037
5114.84799	0.023056
5112.91931	0.023018
5110.99064	0.023087
5109.06196	0.023191
5107.13329	0.023157
5105.20461	0.023078
5103.27594	0.023175
5101.34726	0.023361
5099.41858	0.023392
5097.48991	0.023320
5095.56123	0.023359
5093.63256	0.023465
5091.70388	0.023465
5089.77521	0.023431
5087.84653	0.023539
5085.91785	0.023671
5083.98918	0.023654
5082.06050	0.023625
5080.13183	0.023742
5078.20315	0.023861
5076.27448	0.023820
5074.34580	0.023765
5072.41712	0.023869
5070.48845	0.023992
5068.55977	0.023969
5066.63110	0.023937
5064.70242	0.024041
5062.77375	0.024136
5060.84507	0.024099
5058.91639	0.024088
5056.98772	0.024218
5055.05904	0.024325
5053.13037	0.024285
5051.20169	0.024249
5049.27302	0.024349
5047.34434	0.024443
5045.41566	0.024396
5043.48699	0.024373
5041.55831	0.024519
5039.62964	0.024647
5037.70096	0.024601
5035.77229	0.024561
5033.84361	0.024665
5031.91493	0.024747
5029.98626	0.024718
5028.05758	0.024751
5026.12891	0.024922
5024.20023	0.025018
5022.27156	0.024939
5020.34288	0.024903
5018.41420	0.025025
5016.48553	0.025101
5014.55685	0.025050
5012.62818	0.025068
5010.69950	0.025192
5008.77083	0.025226
5006.84215	0.025158
5004.91347	0.025195
5002.98480	0.025352
5001.05612	0.025406
4999.12745	0.025339
4997.19877	0.025378
4995.27010	0.025542
4993.34142	0.025606
4991.41274	0.025553
4989.48407	0.025597
4987.55539	0.025757
4985.62672	0.025822
4983.69804	0.025762
4981.76937	0.025777
4979.84069	0.025898
4977.91201	0.025923
4975.98334	0.025851
4974.05466	0.025921
4972.12599	0.026101
4970.19731	0.026121
4968.26864	0.026003
4966.33996	0.026011
4964.41128	0.026164
4962.48261	0.026221
4960.55393	0.026152
4958.62526	0.026195
4956.69658	0.026361
4954.76791	0.026412
4952.83923	0.026358
4950.91055	0.026433
4948.98188	0.026603
4947.05320	0.026623
4945.12453	0.026538
4943.19585	0.026594
4941.26718	0.026742
4939.33850	0.026759
4937.40982	0.026706
4935.48115	0.026779
4933.55247	0.026910
4931.62380	0.026922
4929.69512	0.026878
4927.76645	0.026960
4925.83777	0.027101
4923.90909	0.027085
4921.98042	0.027004
4920.05174	0.027106
4918.12307	0.027283
4916.19439	0.027295
4914.26572	0.027243
4912.33704	0.027340
4910.40836	0.027480
4908.47969	0.027448
4906.55101	0.027372
4904.62234	0.027489
4902.69366	0.027663
4900.76499	0.027646
4898.83631	0.027574
4896.90763	0.027664
4894.97896	0.027783
4893.05028	0.027748
4891.12161	0.027709
4889.19293	0.027833
4887.26426	0.027967
4885.33558	0.027942
4883.40690	0.027906
4881.47823	0.028034
4879.54955	0.028187
4877.62088	0.028182
4875.69220	0.028158
4873.76353	0.028271
4871.83485	0.028368
4869.90617	0.028325
4867.97750	0.028317
4866.04882	0.028462
4864.12015	0.028580
4862.19147	0.028549
4860.26280	0.028540
4858.33412	0.028677
4856.40544	0.028781
4854.47677	0.028727
4852.54809	0.028715
4850.61942	0.028865
4848.69074	0.028970
4846.76207	0.028920
4844.83339	0.028906
4842.90471	0.029037
4840.97604	0.029142
4839.04736	0.029108
4837.11869	0.029096
4835.19001	0.029212
4833.26134	0.029288
4831.33266	0.029220
4829.40398	0.029208
4827.47531	0.029368
4825.54663	0.029486
4823.61796	0.029448
4821.68928	0.029447
4819.76061	0.029573
4817.83193	0.029632
4815.90325	0.029553
4813.97458	0.029556
4812.04590	0.029738
4810.11723	0.029874
4808.18855	0.029851
4806.25988	0.029870
4804.33120	0.030013
4802.40252	0.030088
4800.47385	0.030035
4798.54517	0.030059
4796.61650	0.030200
4794.68782	0.030251
4792.75915	0.030183
4790.83047	0.030203
4788.90179	0.030358
4786.97312	0.030438
4785.04444	0.030386
4783.11577	0.030415
4781.18709	0.030551
4779.25842	0.030590
4777.32974	0.030539
4775.40106	0.030608
4773.47239	0.030784
4771.54371	0.030846
4769.61504	0.030794
4767.68636	0.030843
4765.75769	0.030996
4763.82901	0.031044
4761.90033	0.030986
4759.97166	0.031035
4758.04298	0.031187
4756.11431	0.031227
4754.18563	0.031166
4752.25696	0.031222
4750.32828	0.031367
4748.39960	0.031376
4746.47093	0.031301
4744.54225	0.031384
4742.61358	0.031586
4740.68490	0.031668
4738.75623	0.031647
4736.82755	0.031708
4734.89887	0.031819
4732.97020	0.031834
4731.04152	0.031814
4729.11285	0.031909
4727.18417	0.032037
4725.25550	0.032015
4723.32682	0.031935
4721.39814	0.032007
4719.46947	0.032156
4717.54079	0.032175
4715.61212	0.032142
4713.68344	0.032264
4711.75477	0.032454
4709.82609	0.032493
4707.89741	0.032462
4705.96874	0.032565
4704.04006	0.032709
4702.11139	0.032712
4700.18271	0.032696
4698.25404	0.032825
4696.32536	0.032952
4694.39668	0.032911
4692.46801	0.032867
4690.53933	0.032994
4688.61066	0.033124
4686.68198	0.033083
4684.75331	0.033049
4682.82463	0.033182
4680.89595	0.033300
4678.96728	0.033259
4677.03860	0.033248
4675.10993	0.033408
4673.18125	0.033543
4671.25258	0.033506
4669.32390	0.033486
4667.39522	0.033613
4665.46655	0.033722
4663.53787	0.033704
4661.60920	0.033708
4659.68052	0.033837
4657.75185	0.033944
4655.82317	0.033935
4653.89449	0.033964
4651.96582	0.034132
4650.03714	0.034259
4648.10847	0.034216
4646.17979	0.034190
4644.25112	0.034327
4642.32244	0.034441
4640.39376	0.034402
4638.46509	0.034401
4636.53641	0.034552
4634.60774	0.034669
4632.67906	0.034642
4630.75039	0.034649
4628.82171	0.034815
4626.89303	0.034956
4624.96436	0.034929
4623.03568	0.034902
4621.10701	0.034993
4619.17833	0.035053
4617.24966	0.035014
4615.32098	0.035053
4613.39230	0.035232
4611.46363	0.035355
4609.53495	0.035335
4607.60628	0.035343
4605.67760	0.035459
4603.74893	0.035517
4601.82025	0.035483
4599.89157	0.035541
4597.96290	0.035700
4596.03422	0.035764
4594.10555	0.035733
4592.17687	0.035791
4590.24820	0.035945
4588.31952	0.036026
4586.39084	0.036022
4584.46217	0.036105
4582.53349	0.036282
4580.60482	0.036349
4578.67614	0.036293
4576.74747	0.036331
4574.81879	0.036493
4572.89011	0.036571
4570.96144	0.036538
4569.03276	0.036576
4567.10409	0.036713
4565.17541	0.036780
4563.24674	0.036752
4561.31806	0.036795
4559.38938	0.036943
4557.46071	0.037022
4555.53203	0.036999
4553.60336	0.037060
4551.67468	0.037218
4549.74601	0.037278
4547.81733	0.037260
4545.88865	0.037349
4543.95998	0.037496
4542.03130	0.037524
4540.10263	0.037475
4538.17395	0.037537
4536.24528	0.037693
4534.31660	0.037761
4532.38792	0.037760
4530.45925	0.037853
4528.53057	0.037997
4526.60190	0.038035
4524.67322	0.038030
4522.74455	0.038133
4520.81587	0.038272
4518.88719	0.038301
4516.95852	0.038277
4515.02984	0.038374
4513.10117	0.038537
4511.17249	0.038569
4509.24382	0.038528
4507.31514	0.038616
4505.38646	0.038781
4503.45779	0.038842
4501.52911	0.038839
4499.60044	0.038942
4497.67176	0.039099
4495.74309	0.039126
4493.81441	0.039104
4491.88573	0.039224
4489.95706	0.039383
4488.02838	0.039391
4486.09971	0.039352
4484.17103	0.039447
4482.24236	0.039588
4480.31368	0.039628
4478.38500	0.039652
4476.45633	0.039764
4474.52765	0.039891
4472.59898	0.039937
4470.67030	0.039957
4468.74163	0.040053
4466.81295	0.040171
4464.88427	0.040201
4462.95560	0.040222
4461.02692	0.040345
4459.09825	0.040470
4457.16957	0.040499
4455.24090	0.040545
4453.31222	0.040691
4451.38354	0.040804
4449.45487	0.040795
4447.52619	0.040809
4445.59752	0.040948
4443.66884	0.041081
4441.74017	0.041093
4439.81149	0.041104
4437.88281	0.041226
4435.95414	0.041343
4434.02546	0.041347
4432.09679	0.041364
4430.16811	0.041497
4428.23944	0.041612
4426.31076	0.041608
4424.38208	0.041619
4422.45341	0.041756
4420.52473	0.041900
4418.59606	0.041931
4416.66738	0.041960
4414.73871	0.042095
4412.81003	0.042218
4410.88135	0.042239
4408.95268	0.042283
4407.02400	0.042438
4405.09533	0.042545
4403.16665	0.042509
4401.23798	0.042505
4399.30930	0.042653
4397.38062	0.042796
4395.45195	0.042818
4393.52327	0.042839
4391.59460	0.042949
4389.66592	0.043053
4387.73725	0.043101
4385.80857	0.043176
4383.87989	0.043294
4381.95122	0.043360
4380.02254	0.043359
4378.09387	0.043414
4376.16519	0.043560
4374.23652	0.043669
4372.30784	0.043692
4370.37916	0.043759
4368.45049	0.043909
4366.52181	0.043995
4364.59314	0.043973
4362.66446	0.043994
4360.73579	0.044126
4358.80711	0.044249
4356.87843	0.044313
4354.94976	0.044419
4353.02108	0.044566
4351.09241	0.044645
4349.16373	0.044672
4347.23506	0.044759
4345.30638	0.044903
4343.37770	0.044986
4341.44903	0.045006
4339.52035	0.045087
4337.59168	0.045232
4335.66300	0.045314
4333.73433	0.045312
4331.80565	0.045349
4329.87697	0.045474
4327.94830	0.045586
4326.01962	0.045636
4324.09095	0.045712
4322.16227	0.045834
4320.23360	0.045912
4318.30492	0.045946
4316.37624	0.046031
4314.44757	0.046158
4312.51889	0.046223
4310.59022	0.046254
4308.66154	0.046365
4306.73287	0.046536
4304.80419	0.046653
4302.87551	0.046704
4300.94684	0.046780
4299.01816	0.046897
4297.08949	0.046974
4295.16081	0.047020
4293.23214	0.047127
4291.30346	0.047271
4289.37478	0.047343
4287.44611	0.047373
4285.51743	0.047492
4283.58876	0.047638
4281.66008	0.047663
4279.73141	0.047653
4277.80273	0.047760
4275.87405	0.047908
4273.94538	0.047973
4272.01670	0.048010
4270.08803	0.048130
4268.15935	0.048295
4266.23068	0.048387
4264.30200	0.048428
4262.37332	0.048530
4260.44465	0.048656
4258.51597	0.048697
4256.58730	0.048715
4254.65862	0.048826
4252.72995	0.048984
4250.80127	0.049087
4248.87259	0.049162
4246.94392	0.049294
4245.01524	0.049437
4243.08657	0.049486
4241.15789	0.049495
4239.22922	0.049579
4237.30054	0.049697
4235.37186	0.049764
4233.44319	0.049828
4231.51451	0.049941
4229.58584	0.050040
4227.65716	0.050097
4225.72849	0.050180
4223.79981	0.050330
4221.87113	0.050480
4219.94246	0.050544
4218.01378	0.050571
4216.08511	0.050666
4214.15643	0.050797
4212.22776	0.050877
4210.29908	0.050938
4208.37040	0.051062
4206.44173	0.051203
4204.51305	0.051292
4202.58438	0.051382
4200.65570	0.051515
4198.72703	0.051628
4196.79835	0.051670
4194.86968	0.051719
4192.94100	0.051852
4191.01232	0.051987
4189.08365	0.052046
4187.15497	0.052114
4185.22630	0.052235
4183.29762	0.052329
4181.36895	0.052395
4179.44027	0.052502
4177.51159	0.052631
4175.58292	0.052741
4173.65424	0.052843
4171.72557	0.052961
4169.79689	0.053099
4167.86822	0.053214
4165.93954	0.053279
4164.01086	0.053344
4162.08219	0.053450
4160.15351	0.053547
4158.22484	0.053595
4156.29616	0.053670
4154.36749	0.053821
4152.43881	0.053987
4150.51013	0.054103
4148.58146	0.054177
4146.65278	0.054251
4144.72411	0.054323
4142.79543	0.054394
4140.86676	0.054497
4138.93808	0.054620
4137.00940	0.054718
4135.08073	0.054813
4133.15205	0.054949
4131.22338	0.055078
4129.29470	0.055142
4127.36603	0.055192
4125.43735	0.055291
4123.50867	0.055416
4121.58000	0.055525
4119.65132	0.055616
4117.72265	0.055713
4115.79397	0.055831
4113.86530	0.055954
4111.93662	0.056060
4110.00794	0.056168
4108.07927	0.056285
4106.15059	0.056385
4104.22192	0.056473
4102.29324	0.056582
4100.36457	0.056708
4098.43589	0.056819
4096.50721	0.056911
4094.57854	0.057018
4092.64986	0.057153
4090.72119	0.057272
4088.79251	0.057347
4086.86384	0.057438
4084.93516	0.057568
4083.00648	0.057678
4081.07781	0.057750
4079.14913	0.057846
4077.22046	0.057990
4075.29178	0.058134
4073.36311	0.058239
4071.43443	0.058343
4069.50575	0.058474
4067.57708	0.058576
4065.64840	0.058635
4063.71973	0.058731
4061.79105	0.058868
4059.86238	0.058971
4057.93370	0.059058
4056.00502	0.059199
4054.07635	0.059360
4052.14767	0.059493
4050.21900	0.059619
4048.29032	0.059752
4046.36165	0.059869
4044.43297	0.059959
4042.50429	0.060038
4040.57562	0.060149
4038.64694	0.060297
4036.71827	0.060438
4034.78959	0.060550
4032.86092	0.060642
4030.93224	0.060726
4029.00356	0.060815
4027.07489	0.060932
4025.14621	0.061073
4023.21754	0.061198
4021.28886	0.061293
4019.36019	0.061385
4017.43151	0.061502
4015.50283	0.061637
4013.57416	0.061766
4011.64548	0.061888
4009.71681	0.062000
4007.78813	0.062083
4005.85946	0.062154
4003.93078	0.062265
4002.00210	0.062420
4000.07343	0.062572
3998.14475	0.062683
3996.21608	0.062772
3994.28740	0.062908
3992.35873	0.063073
3990.43005	0.063173
3988.50137	0.063239
3986.57270	0.063375
3984.64402	0.063547
3982.71535	0.063666
3980.78667	0.063746
3978.85800	0.063832
3976.92932	0.063925
3975.00064	0.064028
3973.07197	0.064145
3971.14329	0.064258
3969.21462	0.064358
3967.28594	0.064460
3965.35727	0.064588
3963.42859	0.064736
3961.49991	0.064882
3959.57124	0.065006
3957.64256	0.065103
3955.71389	0.065194
3953.78521	0.065303
3951.85654	0.065436
3949.92786	0.065581
3947.99918	0.065721
3946.07051	0.065816
3944.14183	0.065858
3942.21316	0.065939
3940.28448	0.066090
3938.35581	0.066254
3936.42713	0.066399
3934.49845	0.066497
3932.56978	0.066575
3930.64110	0.066712
3928.71243	0.066884
3926.78375	0.067017
3924.85508	0.067114
3922.92640	0.067206
3920.99772	0.067275
3919.06905	0.067340
3917.14037	0.067472
3915.21170	0.067692
3913.28302	0.067920
3911.35435	0.068075
3909.42567	0.068167
3907.49699	0.068185
3905.56832	0.068113
3903.63964	0.068089
3901.71097	0.068226
3899.78229	0.068486
3897.85362	0.068776
3895.92494	0.068989
3893.99626	0.069086
3892.06759	0.069179
3890.13891	0.069286
3888.21024	0.069236
3886.28156	0.069155
3884.35289	0.069367
3882.42421	0.069703
3880.49553	0.069912
3878.56686	0.070059
3876.63818	0.070132
3874.70951	0.070153
3872.78083	0.070199
3870.85216	0.070277
3868.92348	0.070481
3866.99480	0.070769
3865.06613	0.070958
3863.13745	0.071095
3861.20878	0.071300
3859.28010	0.071488
3857.35143	0.071461
3855.42275	0.071208
3853.49407	0.071100
3851.56540	0.071449
3849.63672	0.071976
3847.70805	0.072253
3845.77937	0.072291
3843.85070	0.072305
3841.92202	0.072354
3839.99334	0.072419
3838.06467	0.072571
3836.13599	0.072842
3834.20732	0.073106
3832.27864	0.073301
3830.34997	0.073485
3828.42129	0.073645
3826.49261	0.073732
3824.56394	0.073691
3822.63526	0.073598
3820.70659	0.073739
3818.77791	0.074080
3816.84924	0.074368
3814.92056	0.074629
3812.99188	0.074878
3811.06321	0.074967
3809.13453	0.074876
3807.20586	0.074863
3805.27718	0.075071
3803.34851	0.075250
3801.41983	0.075368
3799.49115	0.075605
3797.56248	0.075871
3795.63380	0.076075
3793.70513	0.076238
3791.77645	0.076359
3789.84778	0.076467
3787.91910	0.076549
3785.99042	0.076622
3784.06175	0.076756
3782.13307	0.076868
3780.20440	0.076907
3778.27572	0.077057
3776.34705	0.077360
3774.41837	0.077609
3772.48969	0.077683
3770.56102	0.077693
3768.63234	0.077798
3766.70367	0.077983
3764.77499	0.078171
3762.84632	0.078333
3760.91764	0.078437
3758.98896	0.078529
3757.06029	0.078630
3755.13161	0.078658
3753.20294	0.078571
3751.27426	0.078461
3749.34559	0.078532
3747.41691	0.078743
3745.48823	0.078939
3743.55956	0.079249
3741.63088	0.079615
3739.70221	0.079726
3737.77353	0.079601
3735.84486	0.079511
3733.91618	0.079685
3731.98750	0.080124
3730.05883	0.080550
3728.13015	0.080741
3726.20148	0.080801
3724.27280	0.080923
3722.34413	0.081118
3720.41545	0.081333
3718.48677	0.081542
3716.55810	0.081682
3714.62942	0.081636
3712.70075	0.081512
3710.77207	0.081618
3708.84340	0.081958
3706.91472	0.082338
3704.98604	0.082590
3703.05737	0.082662
3701.12869	0.082760
3699.20002	0.082988
3697.27134	0.083189
3695.34267	0.083260
3693.41399	0.083256
3691.48531	0.083261
3689.55664	0.083342
3687.62796	0.083571
3685.69929	0.083893
3683.77061	0.084177
3681.84194	0.084345
3679.91326	0.084352
3677.98458	0.084227
3676.05591	0.084180
3674.12723	0.084309
3672.19856	0.084410
3670.26988	0.084562
3668.34121	0.085007
3666.41253	0.085475
3664.48385	0.085673
3662.55518	0.085755
3660.62650	0.085880
3658.69783	0.085934
3656.76915	0.085909
3654.84048	0.085925
3652.91180	0.085859
3650.98312	0.085639
3649.05445	0.085493
3647.12577	0.085708
3645.19710	0.086253
3643.26842	0.086747
3641.33975	0.087015
3639.41107	0.087203
3637.48239	0.087373
3635.55372	0.087457
3633.62504	0.087389
3631.69637	0.087162
3629.76769	0.087013
3627.83902	0.087268
3625.91034	0.087743
3623.98166	0.088024
3622.05299	0.088082
3620.12431	0.088058
3618.19564	0.088090
3616.26696	0.088240
3614.33829	0.088408
3612.40961	0.088460
3610.48093	0.088423
3608.55226	0.088532
3606.62358	0.088890
3604.69491	0.089221
3602.76623	0.089323
3600.83756	0.089367
3598.90888	0.089490
3596.98020	0.089563
3595.05153	0.089567
3593.12285	0.089668
3591.19418	0.089804
3589.26550	0.089796
3587.33683	0.089800
3585.40815	0.090044
3583.47947	0.090383
3581.55080	0.090569
3579.62212	0.090641
3577.69345	0.090773
3575.76477	0.090980
3573.83610	0.091125
3571.90742	0.091083
3569.97874	0.090920
3568.05007	0.090908
3566.12139	0.091128
3564.19272	0.091381
3562.26404	0.091607
3560.33537	0.091852
3558.40669	0.092030
3556.47801	0.092090
3554.54934	0.092143
3552.62066	0.092288
3550.69199	0.092438
3548.76331	0.092454
3546.83464	0.092466
3544.90596	0.092644
3542.97728	0.092836
3541.04861	0.092902
3539.11993	0.092967
3537.19126	0.093091
3535.26258	0.093164
3533.33391	0.093168
3531.40523	0.093208
3529.47655	0.093296
3527.54788	0.093322
3525.61920	0.093314
3523.69053	0.093400
3521.76185	0.093533
3519.83318	0.093580
3517.90450	0.093586
3515.97582	0.093675
3514.04715	0.093797
3512.11847	0.093827
3510.18980	0.093803
3508.26112	0.093834
3506.33245	0.093906
3504.40377	0.093918
3502.47509	0.093901
3500.54642	0.093979
3498.61774	0.094124
3496.68907	0.094197
3494.76039	0.094203
3492.83172	0.094236
3490.90304	0.094275
3488.97436	0.094268
3487.04569	0.094273
3485.11701	0.094366
3483.18834	0.094500
3481.25966	0.094542
3479.33099	0.094509
3477.40231	0.094572
3475.47363	0.094730
3473.54496	0.094820
3471.61628	0.094879
3469.68761	0.095090
3467.75893	0.095387
3465.83026	0.095559
3463.90158	0.095624
3461.97290	0.095759
3460.04423	0.095978
3458.11555	0.096139
3456.18688	0.096228
3454.25820	0.096393
3452.32953	0.096634
3450.40085	0.096774
3448.47217	0.096815
3446.54350	0.096938
3444.61482	0.097145
3442.68615	0.097298
3440.75747	0.097441
3438.82880	0.097704
3436.90012	0.098024
3434.97144	0.098281
3433.04277	0.098569
3431.11409	0.098998
3429.18542	0.099431
3427.25674	0.099730
3425.32807	0.099976
3423.39939	0.100275
3421.47071	0.100589
3419.54204	0.100856
3417.61336	0.101121
3415.68469	0.101434
3413.75601	0.101713
3411.82734	0.101890
3409.89866	0.102073
3407.96998	0.102337
3406.04131	0.102580
3404.11263	0.102720
3402.18396	0.102864
3400.25528	0.103125
3398.32661	0.103396
3396.39793	0.103564
3394.46925	0.103740
3392.54058	0.104044
3390.61190	0.104356
3388.68323	0.104528
3386.75455	0.104660
3384.82588	0.104909
3382.89720	0.105206
3380.96852	0.105393
3379.03985	0.105524
3377.11117	0.105757
3375.18250	0.105999
3373.25382	0.106099
3371.32515	0.106223
3369.39647	0.106528
3367.46779	0.106818
3365.53912	0.106946
3363.61044	0.107071
3361.68177	0.107314
3359.75309	0.107543
3357.82442	0.107652
3355.89574	0.107765
3353.96706	0.108016
3352.03839	0.108295
3350.10971	0.108454
3348.18104	0.108590
3346.25236	0.108834
3344.32369	0.109076
3342.39501	0.109210
3340.46633	0.109371
3338.53766	0.109651
3336.60898	0.109882
3334.68031	0.109969
3332.75163	0.110103
3330.82296	0.110404
3328.89428	0.110690
3326.96560	0.110820
3325.03693	0.110958
3323.10825	0.111247
3321.17958	0.111520
3319.25090	0.111662
3317.32223	0.111819
3315.39355	0.112062
3313.46487	0.112262
3311.53620	0.112366
3309.60752	0.112532
3307.67885	0.112843
3305.75017	0.113112
3303.82150	0.113237
3301.89282	0.113397
3299.96414	0.113674
3298.03547	0.113909
3296.10679	0.114034
3294.17812	0.114195
3292.24944	0.114476
3290.32077	0.114750
3288.39209	0.114929
3286.46341	0.115125
3284.53474	0.115425
3282.60606	0.115709
3280.67739	0.115864
3278.74871	0.116015
3276.82004	0.116291
3274.89136	0.116555
3272.96268	0.116697
3271.03401	0.116859
3269.10533	0.117130
3267.17666	0.117370
3265.24798	0.117518
3263.31931	0.117732
3261.39063	0.118058
3259.46195	0.118322
3257.53328	0.118458
3255.60460	0.118630
3253.67593	0.118901
3251.74725	0.119113
3249.81858	0.119256
3247.88990	0.119511
3245.96122	0.119866
3244.03255	0.120117
3242.10387	0.120235
3240.17520	0.120421
3238.24652	0.120721
3236.31785	0.120932
3234.38917	0.121020
3232.46049	0.121211
3230.53182	0.121565
3228.60314	0.121843
3226.67447	0.121955
3224.74579	0.122112
3222.81712	0.122399
3220.88844	0.122635
3218.95976	0.122761
3217.03109	0.122962
3215.10241	0.123272
3213.17374	0.123491
3211.24506	0.123605
3209.31639	0.123796
3207.38771	0.124090
3205.45903	0.124323
3203.53036	0.124461
3201.60168	0.124690
3199.67301	0.125037
3197.74433	0.125264
3195.81566	0.125375
3193.88698	0.125644
3191.95830	0.126055
3190.02963	0.126329
3188.10095	0.126437
3186.17228	0.126607
3184.24360	0.126895
3182.31493	0.127128
3180.38625	0.127280
3178.45757	0.127502
3176.52890	0.127774
3174.60022	0.127947
3172.67155	0.128091
3170.74287	0.128388
3168.81420	0.128744
3166.88552	0.128940
3164.95684	0.129045
3163.02817	0.129280
3161.09949	0.129621
3159.17082	0.129860
3157.24214	0.129999
3155.31347	0.130237
3153.38479	0.130553
3151.45611	0.130749
3149.52744	0.130871
3147.59876	0.131132
3145.67009	0.131453
3143.74141	0.131620
3141.81274	0.131747
3139.88406	0.132059
3137.95538	0.132418
3136.02671	0.132558
3134.09803	0.132615
3132.16936	0.132891
3130.24068	0.133279
3128.31201	0.133484
3126.38333	0.133576
3124.45465	0.133819
3122.52598	0.134157
3120.59730	0.134354
3118.66863	0.134471
3116.73995	0.134727
3114.81128	0.135063
3112.88260	0.135298
3110.95392	0.135459
3109.02525	0.135710
3107.09657	0.136020
3105.16790	0.136220
3103.23922	0.136380
3101.31055	0.136686
3099.38187	0.137026
3097.45319	0.137185
3095.52452	0.137294
3093.59584	0.137578
3091.66717	0.137898
3089.73849	0.138066
3087.80982	0.138224
3085.88114	0.138513
3083.95246	0.138784
3082.02379	0.138918
3080.09511	0.139081
3078.16644	0.139418
3076.23776	0.139753
3074.30909	0.139911
3072.38041	0.140043
3070.45173	0.140307
3068.52306	0.140563
3066.59438	0.140682
3064.66571	0.140835
3062.73703	0.141169
3060.80836	0.141517
3058.87968	0.141702
3056.95100	0.141843
3055.02233	0.142102
3053.09365	0.142387
3051.16498	0.142547
3049.23630	0.142705
3047.30763	0.143049
3045.37895	0.143410
3043.45027	0.143582
3041.52160	0.143729
3039.59292	0.144038
3037.66425	0.144350
3035.73557	0.144489
3033.80690	0.144592
3031.87822	0.144836
3029.94954	0.145111
3028.02087	0.145270
3026.09219	0.145457
3024.16352	0.145797
3022.23484	0.146089
3020.30617	0.146192
3018.37749	0.146326
3016.44881	0.146654
3014.52014	0.146963
3012.59146	0.147106
3010.66279	0.147285
3008.73411	0.147615
3006.80544	0.147900
3004.87676	0.148020
3002.94808	0.148175
3001.01941	0.148514
2999.09073	0.148835
2997.16206	0.148965
2995.23338	0.149088
2993.30471	0.149362
2991.37603	0.149603
2989.44735	0.149692
2987.51868	0.149815
2985.59000	0.150073
2983.66133	0.150286
2981.73265	0.150326
2979.80398	0.150363
2977.87530	0.150544
2975.94662	0.150673
2974.01795	0.150586
2972.08927	0.150481
2970.16060	0.150508
2968.23192	0.150496
2966.30325	0.150369
2964.37457	0.150382
2962.44589	0.150647
2960.51722	0.150916
2958.58854	0.151093
2956.65987	0.151386
2954.73119	0.151834
2952.80252	0.152189
2950.87384	0.152334
2948.94516	0.152479
2947.01649	0.152772
2945.08781	0.153008
2943.15914	0.153035
2941.23046	0.153038
2939.30179	0.153124
2937.37311	0.153114
2935.44443	0.152950
2933.51576	0.152853
2931.58708	0.152895
2929.65841	0.152825
2927.72973	0.152566
2925.80106	0.152410
2923.87238	0.152493
2921.94370	0.152572
2920.01503	0.152548
2918.08635	0.152745
2916.15768	0.153374
2914.22900	0.154232
2912.30033	0.155073
2910.37165	0.155865
2908.44297	0.156633
2906.51430	0.157229
2904.58562	0.157582
2902.65695	0.157920
2900.72827	0.158374
2898.79960	0.158767
2896.87092	0.159017
2894.94224	0.159350
2893.01357	0.159835
2891.08489	0.160201
2889.15622	0.160371
2887.22754	0.160620
2885.29887	0.161027
2883.37019	0.161308
2881.44151	0.161363
2879.51284	0.161490
2877.58416	0.161828
2875.65549	0.162139
2873.72681	0.162304
2871.79814	0.162496
2869.86946	0.162764
2867.94078	0.162940
2866.01211	0.163010
2864.08343	0.163186
2862.15476	0.163434
2860.22608	0.163453
2858.29741	0.163257
2856.36873	0.163181
2854.44005	0.163276
2852.51138	0.163259
2850.58270	0.163250
2848.65403	0.163734
2846.72535	0.164677
2844.79668	0.165588
2842.86800	0.166242
2840.93932	0.166825
2839.01065	0.167442
2837.08197	0.167890
2835.15330	0.168167
2833.22462	0.168532
2831.29595	0.168997
2829.36727	0.169307
2827.43859	0.169445
2825.50992	0.169698
2823.58124	0.170107
2821.65257	0.170397
2819.72389	0.170556
2817.79522	0.170855
2815.86654	0.171279
2813.93786	0.171563
2812.00919	0.171721
2810.08051	0.171999
2808.15184	0.172370
2806.22316	0.172587
2804.29449	0.172694
2802.36581	0.172954
2800.43713	0.173346
2798.50846	0.173632
2796.57978	0.173819
2794.65111	0.174099
2792.72243	0.174443
2790.79376	0.174675
2788.86508	0.174830
2786.93640	0.175109
2785.00773	0.175494
2783.07905	0.175762
2781.15038	0.175933
2779.22170	0.176214
2777.29303	0.176580
2775.36435	0.176834
2773.43567	0.177001
2771.50700	0.177273
2769.57832	0.177593
2767.64965	0.177782
2765.72097	0.177941
2763.79230	0.178267
2761.86362	0.178656
2759.93494	0.178879
2758.00627	0.179034
2756.07759	0.179337
2754.14892	0.179669
2752.22024	0.179853
2750.29157	0.180018
2748.36289	0.180314
2746.43421	0.180639
2744.50554	0.180841
2742.57686	0.180999
2740.64819	0.181295
2738.71951	0.181670
2736.79084	0.181896
2734.86216	0.182000
2732.93348	0.182243
2731.00481	0.182614
2729.07613	0.182872
2727.14746	0.183044
2725.21878	0.183318
2723.29011	0.183618
2721.36143	0.183783
2719.43275	0.183926
2717.50408	0.184231
2715.57540	0.184588
2713.64673	0.184790
2711.71805	0.184932
2709.78938	0.185222
2707.86070	0.185566
2705.93202	0.185767
2704.00335	0.185933
2702.07467	0.186236
2700.14600	0.186547
2698.21732	0.186688
2696.28865	0.186806
2694.35997	0.187115
2692.43129	0.187481
2690.50262	0.187667
2688.57394	0.187782
2686.64527	0.188067
2684.71659	0.188442
2682.78792	0.188697
2680.85924	0.188887
2678.93056	0.189177
2677.00189	0.189473
2675.07321	0.189622
2673.14454	0.189780
2671.21586	0.190108
2669.28719	0.190426
2667.35851	0.190562
2665.42983	0.190681
2663.50116	0.190967
2661.57248	0.191287
2659.64381	0.191485
2657.71513	0.191693
2655.78646	0.192056
2653.85778	0.192429
2651.92910	0.192639
2650.00043	0.192814
2648.07175	0.193134
2646.14308	0.193488
2644.21440	0.193704
2642.28573	0.193882
2640.35705	0.194164
2638.42837	0.194441
2636.49970	0.194620
2634.57102	0.194852
2632.64235	0.195239
2630.71367	0.195603
2628.78500	0.195781
2626.85632	0.195954
2624.92764	0.196316
2622.99897	0.196672
2621.07029	0.196858
2619.14162	0.197072
2617.21294	0.197475
2615.28427	0.197875
2613.35559	0.198080
2611.42691	0.198258
2609.49824	0.198603
2607.56956	0.198937
2605.64089	0.199102
2603.71221	0.199315
2601.78354	0.199694
2599.85486	0.200018
2597.92618	0.200176
2595.99751	0.200362
2594.06883	0.200714
2592.14016	0.201071
2590.21148	0.201270
2588.28281	0.201434
2586.35413	0.201705
2584.42545	0.201993
2582.49678	0.202208
2580.56810	0.202476
2578.63943	0.202867
2576.71075	0.203186
2574.78208	0.203335
2572.85340	0.203523
2570.92472	0.203847
2568.99605	0.204125
2567.06737	0.204311
2565.13870	0.204595
2563.21002	0.204987
2561.28135	0.205263
2559.35267	0.205380
2557.42399	0.205560
2555.49532	0.205894
2553.56664	0.206192
2551.63797	0.206345
2549.70929	0.206546
2547.78062	0.206905
2545.85194	0.207224
2543.92326	0.207377
2541.99459	0.207551
2540.06591	0.207881
2538.13724	0.208194
2536.20856	0.208365
2534.27989	0.208570
2532.35121	0.208903
2530.42253	0.209189
2528.49386	0.209349
2526.56518	0.209575
2524.63651	0.209962
2522.70783	0.210286
2520.77916	0.210441
2518.85048	0.210645
2516.92181	0.210995
2514.99313	0.211305
2513.06445	0.211480
2511.13578	0.211700
2509.20710	0.212056
2507.27843	0.212373
2505.34975	0.212583
2503.42108	0.212853
2501.49240	0.213231
2499.56372	0.213530
2497.63505	0.213713
2495.70637	0.214011
2493.77770	0.214480
2491.84902	0.214853
2489.92035	0.215014
2487.99167	0.215217
2486.06299	0.215606
2484.13432	0.215962
2482.20564	0.216140
2480.27697	0.216327
2478.34829	0.216656
2476.41962	0.216987
2474.49094	0.217251
2472.56226	0.217583
2470.63359	0.217983
2468.70491	0.218268
2466.77624	0.218433
2464.84756	0.218683
2462.91889	0.219047
2460.99021	0.219327
2459.06153	0.219503
2457.13286	0.219777
2455.20418	0.220191
2453.27551	0.220537
2451.34683	0.220749
2449.41816	0.221017
2447.48948	0.221399
2445.56080	0.221749
2443.63213	0.222006
2441.70345	0.222268
2439.77478	0.222559
2437.84610	0.222760
2435.91743	0.222878
2433.98875	0.223119
2432.06007	0.223487
2430.13140	0.223747
2428.20272	0.223914
2426.27405	0.224230
2424.34537	0.224649
2422.41670	0.224933
2420.48802	0.225115
2418.55934	0.225427
2416.63067	0.225850
2414.70199	0.226124
2412.77332	0.226241
2410.84464	0.226493
2408.91597	0.226909
2406.98729	0.227201
2405.05861	0.227336
2403.12994	0.227554
2401.20126	0.227883
2399.27259	0.228128
2397.34391	0.228315
2395.41524	0.228637
2393.48656	0.229025
2391.55788	0.229304
2389.62921	0.229520
2387.70053	0.229806
2385.77186	0.230116
2383.84318	0.230277
2381.91451	0.230287
2379.98583	0.230332
2378.05715	0.230436
2376.12848	0.230459
2374.19980	0.230427
2372.27113	0.230475
2370.34245	0.230578
2368.41378	0.230627
2366.48510	0.230656
2364.55642	0.230802
2362.62775	0.231057
2360.69907	0.231320
2358.77040	0.231622
2356.84172	0.232052
2354.91305	0.232586
2352.98437	0.233112
2351.05569	0.233578
2349.12702	0.233967
2347.19834	0.234184
2345.26967	0.234187
2343.34099	0.234183
2341.41232	0.234446
2339.48364	0.234890
2337.55496	0.235194
2335.62629	0.235364
2333.69761	0.235665
2331.76894	0.236080
2329.84026	0.236342
2327.91159	0.236484
2325.98291	0.236769
2324.05423	0.237204
2322.12556	0.237612
2320.19688	0.237969
2318.26821	0.238389
2316.33953	0.238868
2314.41086	0.239265
2312.48218	0.239589
2310.55350	0.239965
2308.62483	0.240353
2306.69615	0.240650
2304.76748	0.240960
2302.83880	0.241374
2300.91013	0.241745
2298.98145	0.241972
2297.05277	0.242177
2295.12410	0.242502
2293.19542	0.242875
2291.26675	0.243139
2289.33807	0.243368
2287.40940	0.243729
2285.48072	0.244106
2283.55204	0.244319
2281.62337	0.244480
2279.69469	0.244771
2277.76602	0.245110
2275.83734	0.245352
2273.90867	0.245586
2271.97999	0.245955
2270.05131	0.246333
2268.12264	0.246514
2266.19396	0.246614
2264.26529	0.246890
2262.33661	0.247274
2260.40794	0.247563
2258.47926	0.247816
2256.55058	0.248142
2254.62191	0.248462
2252.69323	0.248690
2250.76456	0.248907
2248.83588	0.249214
2246.90721	0.249516
2244.97853	0.249690
2243.04985	0.249860
2241.12118	0.250173
2239.19250	0.250542
2237.26383	0.250836
2235.33515	0.251089
2233.40648	0.251379
2231.47780	0.251649
2229.54912	0.251846
2227.62045	0.252067
2225.69177	0.252372
2223.76310	0.252660
2221.83442	0.252866
2219.90575	0.253096
2217.97707	0.253410
2216.04839	0.253704
2214.11972	0.253942
2212.19104	0.254222
2210.26237	0.254563
2208.33369	0.254866
2206.40502	0.255086
2204.47634	0.255284
2202.54766	0.255511
2200.61899	0.255734
2198.69031	0.255915
2196.76164	0.256141
2194.83296	0.256481
2192.90429	0.256823
2190.97561	0.257037
2189.04693	0.257212
2187.11826	0.257505
2185.18958	0.257825
2183.26091	0.258034
2181.33223	0.258208
2179.40356	0.258450
2177.47488	0.258757
2175.54620	0.259035
2173.61753	0.259251
2171.68885	0.259513
2169.76018	0.259822
2167.83150	0.260078
2165.90283	0.260320
2163.97415	0.260616
2162.04547	0.260907
2160.11680	0.261141
2158.18812	0.261390
2156.25945	0.261714
2154.33077	0.262024
2152.40210	0.262279
2150.47342	0.262562
2148.54474	0.262880
2146.61607	0.263158
2144.68739	0.263370
2142.75872	0.263582
2140.83004	0.263862
2138.90137	0.264144
2136.97269	0.264352
2135.04401	0.264576
2133.11534	0.264915
2131.18666	0.265256
2129.25799	0.265475
2127.32931	0.265681
2125.40064	0.265966
2123.47196	0.266224
2121.54328	0.266393
2119.61461	0.266595
2117.68593	0.266931
2115.75726	0.267297
2113.82858	0.267541
2111.89991	0.267736
2109.97123	0.268002
2108.04255	0.268273
2106.11388	0.268485
2104.18520	0.268717
2102.25653	0.269016
2100.32785	0.269327
2098.39918	0.269607
2096.47050	0.269881
2094.54182	0.270173
2092.61315	0.270406
2090.68447	0.270544
2088.75580	0.270729
2086.82712	0.271047
2084.89845	0.271370
2082.96977	0.271569
2081.04109	0.271751
2079.11242	0.272080
2077.18374	0.272431
2075.25507	0.272644
2073.32639	0.272835
2071.39772	0.273109
2069.46904	0.273377
2067.54036	0.273576
2065.61169	0.273799
2063.68301	0.274103
2061.75434	0.274380
2059.82566	0.274591
2057.89699	0.274829
2055.96831	0.275125
2054.03963	0.275405
2052.11096	0.275613
2050.18228	0.275801
2048.25361	0.276046
2046.32493	0.276310
2044.39626	0.276540
2042.46758	0.276778
2040.53890	0.277052
2038.61023	0.277290
2036.68155	0.277462
2034.75288	0.277669
2032.82420	0.277975
2030.89553	0.278287
2028.96685	0.278542
2027.03817	0.278831
2025.10950	0.279151
2023.18082	0.279367
2021.25215	0.279500
2019.32347	0.279676
2017.39480	0.279938
2015.46612	0.280248
2013.53744	0.280540
2011.60877	0.280842
2009.68009	0.281191
2007.75142	0.281505
2005.82274	0.281726
2003.89407	0.281949
2001.96539	0.282240
2000.03671	0.282499
1998.10804	0.282687
1996.17936	0.282907
1994.25069	0.283176
1992.32201	0.283409
1990.39334	0.283559
1988.46466	0.283704
1986.53598	0.283962
1984.60731	0.284296
1982.67863	0.284607
1980.74996	0.284917
1978.82128	0.285199
1976.89261	0.285382
1974.96393	0.285547
1973.03525	0.285773
1971.10658	0.285960
1969.17790	0.286003
1967.24923	0.286047
1965.32055	0.286326
1963.39188	0.286784
1961.46320	0.287164
1959.53452	0.287367
1957.60585	0.287505
1955.67717	0.287704
1953.74850	0.287935
1951.81982	0.288173
1949.89115	0.288521
1947.96247	0.288913
1946.03379	0.289119
1944.10512	0.289141
1942.17644	0.289275
1940.24777	0.289659
1938.31909	0.290041
1936.39042	0.290263
1934.46174	0.290448
1932.53306	0.290650
1930.60439	0.290843
1928.67571	0.291100
1926.74704	0.291424
1924.81836	0.291687
1922.88969	0.291824
1920.96101	0.291750
1919.03233	0.291652
1917.10366	0.292010
1915.17498	0.292652
1913.24631	0.293046
1911.31763	0.293236
1909.38896	0.293465
1907.46028	0.293731
1905.53160	0.293975
1903.60293	0.294258
1901.67425	0.294626
1899.74558	0.294925
1897.81690	0.295034
1895.88823	0.295137
1893.95955	0.295400
1892.03087	0.295646
1890.10220	0.295823
1888.17352	0.296121
1886.24485	0.296466
1884.31617	0.296713
1882.38750	0.296930
1880.45882	0.297207
1878.53014	0.297504
1876.60147	0.297721
1874.67279	0.297890
1872.74412	0.298037
1870.81544	0.298004
1868.88677	0.297903
1866.95809	0.298198
1865.02941	0.298884
1863.10074	0.299478
1861.17206	0.299787
1859.24339	0.299992
1857.31471	0.300275
1855.38604	0.300600
1853.45736	0.300836
1851.52868	0.300985
1849.60001	0.301138
1847.67133	0.301165
1845.74266	0.300955
1843.81398	0.301076
1841.88531	0.301824
1839.95663	0.302488
1838.02795	0.302686
1836.09928	0.302813
1834.17060	0.303022
1832.24193	0.303016
1830.31325	0.302869
1828.38458	0.302974
1826.45590	0.303310
1824.52722	0.303785
1822.59855	0.304362
1820.66987	0.304816
1818.74120	0.305110
1816.81252	0.305358
1814.88385	0.305498
1812.95517	0.305470
1811.02649	0.305506
1809.09782	0.305834
1807.16914	0.306241
1805.24047	0.306440
1803.31179	0.306416
1801.38312	0.306376
1799.45444	0.306562
1797.52576	0.306920
1795.59709	0.307160
1793.66841	0.307103
1791.73974	0.307051
1789.81106	0.307431
1787.88239	0.307981
1785.95371	0.308290
1784.02503	0.308433
1782.09636	0.308550
1780.16768	0.308778
1778.23901	0.309091
1776.31033	0.309081
1774.38166	0.308682
1772.45298	0.308427
1770.52430	0.308467
1768.59563	0.308671
1766.66695	0.309285
1764.73828	0.310019
1762.80960	0.310296
1760.88093	0.310258
1758.95225	0.310049
1757.02357	0.309959
1755.09490	0.310244
1753.16622	0.310275
1751.23755	0.309793
1749.30887	0.309527
1747.38020	0.309777
1745.45152	0.310079
1743.52284	0.310163
1741.59417	0.310141
1739.66549	0.310098
1737.73682	0.309764
1735.80814	0.308945
1733.87947	0.308550
1731.95079	0.309200
1730.02211	0.310136
1728.09344	0.310940
1726.16476	0.311623
1724.23609	0.311970
1722.30741	0.311794
1720.37874	0.311041
1718.45006	0.310403
1716.52138	0.310663
1714.59271	0.311584
1712.66403	0.312549
1710.73536	0.313154
1708.80668	0.313190
1706.87801	0.312999
1704.94933	0.313053
1703.02065	0.312887
1701.09198	0.312266
1699.16330	0.311892
1697.23463	0.311839
1695.30595	0.312266
1693.37728	0.313369
1691.44860	0.314079
1689.51992	0.313959
1687.59125	0.313376
1685.66257	0.312446
1683.73390	0.312040
1681.80522	0.312684
1679.87655	0.313528
1677.94787	0.313815
1676.01919	0.313728
1674.09052	0.313753
1672.16184	0.313699
1670.23317	0.313429
1668.30449	0.313657
1666.37582	0.314381
1664.44714	0.314784
1662.51846	0.314871
1660.58979	0.315009
1658.66111	0.315039
1656.73244	0.314218
1654.80376	0.312478
1652.87509	0.311788
1650.94641	0.312993
1649.01773	0.313959
1647.08906	0.313914
1645.16038	0.314255
1643.23171	0.315110
1641.30303	0.315518
1639.37436	0.315179
1637.44568	0.314629
1635.51700	0.314685
1633.58833	0.315425
1631.65965	0.316046
1629.73098	0.316114
1627.80230	0.315912
1625.87363	0.315467
1623.94495	0.314721
1622.01627	0.314142
1620.08760	0.313996
1618.15892	0.314358
1616.23025	0.315366
1614.30157	0.316614
1612.37290	0.317562
1610.44422	0.318137
1608.51554	0.318457
1606.58687	0.318712
1604.65819	0.319054
1602.72952	0.319509
1600.80084	0.319966
1598.87217	0.320257
1596.94349	0.320436
1595.01481	0.320675
1593.08614	0.320948
1591.15746	0.321211
1589.22879	0.321522
1587.30011	0.321851
1585.37144	0.322088
1583.44276	0.322253
1581.51408	0.322412
1579.58541	0.322277
1577.65673	0.321788
1575.72806	0.321842
1573.79938	0.322611
1571.87071	0.322969
1569.94203	0.322880
1568.01335	0.323154
1566.08468	0.323623
1564.15600	0.323891
1562.22733	0.323657
1560.29865	0.322717
1558.36998	0.322122
1556.44130	0.322882
1554.51262	0.324128
1552.58395	0.324709
1550.65527	0.324801
1548.72660	0.324992
1546.79792	0.325073
1544.86925	0.324520
1542.94057	0.323721
1541.01189	0.323645
1539.08322	0.324504
1537.15454	0.325448
1535.22587	0.325773
1533.29719	0.325969
1531.36852	0.326516
1529.43984	0.326885
1527.51116	0.326855
1525.58249	0.326633
1523.65381	0.326163
1521.72514	0.325939
1519.79646	0.326367
1517.86779	0.326815
1515.93911	0.326995
1514.01043	0.327229
1512.08176	0.327352
1510.15308	0.326834
1508.22441	0.326042
1506.29573	0.326348
1504.36706	0.327767
1502.43838	0.328690
1500.50970	0.328482
1498.58103	0.327805
1496.65235	0.327559
1494.72368	0.327996
1492.79500	0.328284
1490.86633	0.328004
1488.93765	0.327822
1487.00897	0.328106
1485.08030	0.328367
1483.15162	0.328215
1481.22295	0.327890
1479.29427	0.327450
1477.36560	0.326624
1475.43692	0.325606
1473.50824	0.324893
1471.57957	0.324723
1469.65089	0.324768
1467.72222	0.324343
1465.79354	0.323603
1463.86487	0.323388
1461.93619	0.323448
1460.00751	0.322717
1458.07884	0.321601
1456.15016	0.321600
1454.22149	0.322610
1452.29281	0.323326
1450.36414	0.323419
1448.43546	0.323377
1446.50678	0.323576
1444.57811	0.323998
1442.64943	0.324416
1440.72076	0.324617
1438.79208	0.324474
1436.86341	0.324422
1434.93473	0.324930
1433.00605	0.325558
1431.07738	0.325855
1429.14870	0.326093
1427.22003	0.326379
1425.29135	0.326510
1423.36268	0.326335
1421.43400	0.325568
1419.50532	0.324865
1417.57665	0.325340
1415.64797	0.326371
1413.71930	0.326902
1411.79062	0.327082
1409.86195	0.327229
1407.93327	0.327255
1406.00459	0.327116
1404.07592	0.327008
1402.14724	0.326921
1400.21857	0.326694
1398.28989	0.326438
1396.36122	0.326317
1394.43254	0.326436
1392.50386	0.326678
1390.57519	0.326604
1388.64651	0.326114
1386.71784	0.325663
1384.78916	0.325580
1382.86049	0.325761
1380.93181	0.325943
1379.00313	0.325981
1377.07446	0.325860
1375.14578	0.325679
1373.21711	0.325669
1371.28843	0.325853
1369.35976	0.326062
1367.43108	0.326211
1365.50240	0.326159
1363.57373	0.325916
1361.64505	0.325850
1359.71638	0.326110
1357.78770	0.326406
1355.85903	0.326575
1353.93035	0.326747
1352.00167	0.326947
1350.07300	0.327124
1348.14432	0.327307
1346.21565	0.327509
1344.28697	0.327656
1342.35830	0.327623
1340.42962	0.327447
1338.50094	0.327372
1336.57227	0.327482
1334.64359	0.327566
1332.71492	0.327493
1330.78624	0.327327
1328.85757	0.327104
1326.92889	0.326809
1325.00021	0.326487
1323.07154	0.326167
1321.14286	0.325819
1319.21419	0.325529
1317.28551	0.325347
1315.35684	0.325136
1313.42816	0.324851
1311.49948	0.324561
1309.57081	0.324270
1307.64213	0.323979
1305.71346	0.323648
1303.78478	0.323256
1301.85611	0.322876
1299.92743	0.322478
1297.99875	0.322040
1296.07008	0.321655
1294.14140	0.321357
1292.21273	0.321098
1290.28405	0.320819
1288.35538	0.320515
1286.42670	0.320223
1284.49802	0.319924
1282.56935	0.319564
1280.64067	0.319135
1278.71200	0.318584
1276.78332	0.317856
1274.85465	0.317074
1272.92597	0.316265
1270.99729	0.315175
1269.06862	0.313683
1267.13994	0.312035
1265.21127	0.310602
1263.28259	0.309532
1261.35392	0.308896
1259.42524	0.308818
1257.49656	0.309067
1255.56789	0.309160
1253.63921	0.308935
1251.71054	0.308522
1249.78186	0.307927
1247.85319	0.307133
1245.92451	0.306267
1243.99583	0.305377
1242.06716	0.304444
1240.13848	0.303519
1238.20981	0.302610
1236.28113	0.301654
1234.35246	0.300627
1232.42378	0.299558
1230.49510	0.298452
1228.56643	0.297374
1226.63775	0.296446
1224.70908	0.295654
1222.78040	0.294877
1220.85173	0.294041
1218.92305	0.293130
1216.99437	0.292192
1215.06570	0.291275
1213.13702	0.290323
1211.20835	0.289285
1209.27967	0.288241
1207.35100	0.287242
1205.42232	0.286260
1203.49364	0.285295
1201.56497	0.284316
1199.63629	0.283299
1197.70762	0.282256
1195.77894	0.281150
1193.85027	0.279974
1191.92159	0.278762
1189.99291	0.277544
1188.06424	0.276347
1186.13556	0.275123
1184.20689	0.273817
1182.27821	0.272432
1180.34954	0.271016
1178.42086	0.269594
1176.49218	0.268129
1174.56351	0.266652
1172.63483	0.265196
1170.70616	0.263702
1168.77748	0.262205
1166.84881	0.260795
1164.92013	0.259405
1162.99145	0.257956
1161.06278	0.256510
1159.13410	0.255142
1157.20543	0.253873
1155.27675	0.252664
1153.34808	0.251407
1151.41940	0.250053
1149.49072	0.248668
1147.56205	0.247297
1145.63337	0.245938
1143.70470	0.244576
1141.77602	0.243141
1139.84735	0.241549
1137.91867	0.239800
1135.98999	0.237936
1134.06132	0.235881
1132.13264	0.233445
1130.20397	0.230554
1128.27529	0.227331
1126.34662	0.223890
1124.41794	0.220280
1122.48926	0.216605
1120.56059	0.212972
1118.63191	0.209493
1116.70324	0.206324
1114.77456	0.203545
1112.84589	0.201099
1110.91721	0.198983
1108.98853	0.197308
1107.05986	0.196142
1105.13118	0.195496
1103.20251	0.195314
1101.27383	0.195512
1099.34516	0.196129
1097.41648	0.197153
1095.48780	0.198420
1093.55913	0.199770
1091.63045	0.201030
1089.70178	0.202128
1087.77310	0.203174
1085.84443	0.204218
1083.91575	0.205107
1081.98707	0.205694
1080.05840	0.206015
1078.12972	0.206268
1076.20105	0.206608
1074.27237	0.206940
1072.34370	0.207146
1070.41502	0.207345
1068.48634	0.207655
1066.55767	0.208003
1064.62899	0.208330
1062.70032	0.208663
1060.77164	0.209036
1058.84297	0.209459
1056.91429	0.209866
1054.98561	0.210262
1053.05694	0.210761
1051.12826	0.211373
1049.19959	0.212057
1047.27091	0.212790
1045.34224	0.213500
1043.41356	0.214147
1041.48488	0.214770
1039.55621	0.215395
1037.62753	0.216022
1035.69886	0.216687
1033.77018	0.217372
1031.84151	0.218034
1029.91283	0.218704
1027.98415	0.219358
1026.05548	0.219908
1024.12680	0.220383
1022.19813	0.220952
1020.26945	0.221702
1018.34078	0.222499
1016.41210	0.223281
1014.48342	0.224195
1012.55475	0.225271
1010.62607	0.226337
1008.69740	0.227305
1006.76872	0.228266
1004.84005	0.229252
1002.91137	0.230156
1000.98269	0.230938
999.05402	0.231635
997.12534	0.232214
995.19667	0.232641
993.26799	0.232937
991.33932	0.233173
989.41064	0.233389
987.48196	0.233553
985.55329	0.233690
983.62461	0.233846
981.69594	0.233968
979.76726	0.234027
977.83859	0.234006
975.90991	0.233800
973.98123	0.233473
972.05256	0.233270
970.12388	0.233205
968.19521	0.233118
966.26653	0.232945
964.33786	0.232727
962.40918	0.232506
960.48050	0.232238
958.55183	0.231934
956.62315	0.231693
954.69448	0.231453
952.76580	0.231055
950.83713	0.230545
948.90845	0.230135
946.97977	0.229849
945.05110	0.229484
943.12242	0.228918
941.19375	0.228205
939.26507	0.227464
937.33640	0.226687
935.40772	0.225756
933.47904	0.224699
931.55037	0.223645
929.62169	0.222636
927.69302	0.221641
925.76434	0.220566
923.83567	0.219362
921.90699	0.218178
919.97831	0.217139
918.04964	0.216082
916.12096	0.214784
914.19229	0.213300
912.26361	0.211849
910.33494	0.210554
908.40626	0.209367
906.47758	0.208167
904.54891	0.206952
902.62023	0.205819
900.69156	0.204762
898.76288	0.203770
896.83421	0.202867
894.90553	0.201965
892.97685	0.201009
891.04818	0.200100
889.11950	0.199287
887.19083	0.198516
885.26215	0.197790
883.33348	0.197192
881.40480	0.196674
879.47612	0.196104
877.54745	0.195519
875.61877	0.195026
873.69010	0.194612
871.76142	0.194217
869.83275	0.193809
867.90407	0.193339
865.97539	0.192830
864.04672	0.192395
862.11804	0.192101
860.18937	0.191973
858.26069	0.191955
856.33202	0.191925
854.40334	0.191772
852.47466	0.191410
850.54599	0.190904
848.61731	0.190432
846.68864	0.190031
844.75996	0.189617
842.83129	0.189219
840.90261	0.188848
838.97394	0.188345
837.04526	0.187639
835.11658	0.186799
833.18791	0.185812
831.25923	0.184584
829.33056	0.183079
827.40188	0.181389
825.47321	0.179728
823.54453	0.178284
821.61585	0.177052
819.68718	0.176020
817.75850	0.175274
815.82983	0.174820
813.90115	0.174568
811.97248	0.174348
810.04380	0.173994
808.11512	0.173582
806.18645	0.173320
804.25777	0.173229
802.32910	0.173151
800.40042	0.172856
798.47175	0.172193
796.54307	0.171365
794.61439	0.170720
792.68572	0.170327
790.75704	0.170045
788.82837	0.169815
786.89969	0.169614
784.97102	0.169325
783.04234	0.168997
781.11366	0.168716
779.18499	0.168366
777.25631	0.167949
775.32764	0.167527
773.39896	0.166999
771.47029	0.166415
769.54161	0.165955
767.61293	0.165521
765.68426	0.164978
763.75558	0.164397
761.82691	0.163843
759.89823	0.163233
757.96956	0.162406
756.04088	0.161431
754.11220	0.160541
752.18353	0.159713
750.25485	0.158766
748.32618	0.157652
746.39750	0.156427
744.46883	0.155130
742.54015	0.153793
740.61147	0.152589
738.68280	0.151850
736.75412	0.151652
734.82545	0.151771
732.89677	0.152001
730.96810	0.152191
729.03942	0.152325
727.11074	0.152443
725.18207	0.152579
723.25339	0.152780
721.32472	0.153048
719.39604	0.153484
717.46737	0.154150
715.53869	0.154981
713.61001	0.155858
711.68134	0.156513
709.75266	0.156883
707.82399	0.157138
705.89531	0.157240
703.96664	0.157081
702.03796	0.156710
700.10928	0.156135
698.18061	0.155358
696.25193	0.154509
694.32326	0.153656
692.39458	0.152847
690.46591	0.152172
688.53723	0.151568
686.60855	0.150914
684.67988	0.150238
682.75120	0.149604
680.82253	0.148945
678.89385	0.148131
676.96518	0.147144
675.03650	0.146103
673.10782	0.145063
671.17915	0.143842
669.25047	0.142442
667.32180	0.141239
665.39312	0.140258
663.46445	0.139098
661.53577	0.137702
659.60709	0.136353
657.67842	0.135218
655.74974	0.134215
653.82107	0.133122
651.89239	0.131895
649.96372	0.130590
648.03504	0.129187
646.10636	0.127693
644.17769	0.126124
642.24901	0.124547
640.32034	0.122979
638.39166	0.121394
636.46299	0.119768
634.53431	0.117953
632.60563	0.115506
630.67696	0.111443
628.74828	0.105245
626.81961	0.097659
624.89093	0.090077
622.96226	0.084135
621.03358	0.080517
619.10490	0.078484
617.17623	0.077101
615.24755	0.075543
613.31888	0.073486
611.39020	0.071623
609.46153	0.070752
607.53285	0.070881
605.60417	0.071607
603.67550	0.072631
601.74682	0.073876
599.81815	0.075437
597.88947	0.077099
595.96080	0.078389
594.03212	0.079156
592.10344	0.079533
590.17477	0.079613
588.24609	0.079423
586.31742	0.079193
584.38874	0.079034
582.46007	0.078698
580.53139	0.078090
578.60271	0.077310
576.67404	0.076417
574.74536	0.075454
572.81669	0.074374
570.88801	0.073148
568.95934	0.071974
567.03066	0.071101
565.10198	0.070571
563.17331	0.070209
561.24463	0.069793
559.31596	0.069275
557.38728	0.068783
555.45861	0.068415
553.52993	0.068080
551.60125	0.067634
549.67258	0.067123
547.74390	0.066687
545.81523	0.066372
543.88655	0.066110
541.95788	0.065869
540.02920	0.065650
538.10052	0.065276
536.17185	0.064672
534.24317	0.064091
532.31450	0.063693
530.38582	0.063361
528.45715	0.062861
526.52847	0.062152
524.59979	0.061465
522.67112	0.060841
520.74244	0.060043
518.81377	0.059026
516.88509	0.057969
514.95642	0.057033
513.02774	0.056355
511.09906	0.055936
509.17039	0.055578
507.24171	0.055147
505.31304	0.054612
503.38436	0.053945
501.45569	0.053230
499.52701	0.052482
497.59833	0.051660
495.66966	0.050910
493.74098	0.050225
491.81231	0.049369
489.88363	0.048321
487.95496	0.047248
486.02628	0.046318
484.09760	0.045531
482.16893	0.044707
480.24025	0.043789
478.31158	0.042831
476.38290	0.041859
474.45423	0.040897
472.52555	0.039953
470.59687	0.039053
468.66820	0.038277
466.73952	0.037696
464.81085	0.037346
462.88217	0.037210
460.95350	0.037145
459.02482	0.036955
457.09614	0.036627
455.16747	0.036407
453.23879	0.036469
451.31012	0.036639
449.38144	0.036651
447.45277	0.036455
445.52409	0.036116
443.59541	0.035716
441.66674	0.035296
439.73806	0.034809
437.80939	0.034190
435.88071	0.033505
433.95204	0.032922
432.02336	0.032305
430.09468	0.031362
428.16601	0.030226
426.23733	0.029099
424.30866	0.027978
422.37998	0.026968
420.45131	0.026016
418.52263	0.024943
416.59395	0.023862
414.66528	0.022804
412.73660	0.021565
410.80793	0.020189
408.87925	0.018980
406.95058	0.018109
405.02190	0.017400
403.09322	0.016492
401.16455	0.015414
399.23587	0.014497
397.30720	0.013686
395.37852	0.012772
393.44985	0.011822
391.52117	0.010968
389.59249	0.010291
387.66382	0.009733
385.73514	0.009096
383.80647	0.008390
381.87779	0.007839
379.94912	0.007397
378.02044	0.006899
376.09176	0.006403
374.16309	0.005894
372.23441	0.005265
370.30574	0.004544
368.37706	0.003870
