7496.76250	0.001943
7494.83382	0.001932
7492.90514	0.001907
7490.97647	0.001916
7489.04779	0.001944
7487.11912	0.001941
7485.19044	0.001928
7483.26177	0.001951
7481.33309	0.001983
7479.40441	0.001975
7477.47574	0.001944
7475.54706	0.001943
7473.61839	0.001971
7471.68971	0.001976
7469.76104	0.001958
7467.83236	0.001961
7465.90368	0.001976
7463.97501	0.001963
7462.04633	0.001959
7460.11766	0.002006
7458.18898	0.002050
7456.26031	0.002036
7454.33163	0.002012
7452.40295	0.002030
7450.47428	0.002054
7448.54560	0.002035
7446.61693	0.002009
7444.68825	0.002020
7442.75958	0.002027
7440.83090	0.002008
7438.90222	0.002020
7436.97355	0.002064
7435.04487	0.002073
7433.11620	0.002042
7431.18752	0.002034
7429.25885	0.002066
7427.33017	0.002089
7425.40149	0.002085
7423.47282	0.002087
7421.54414	0.002102
7419.61547	0.002096
7417.68679	0.002078
7415.75812	0.002106
7413.82944	0.002159
7411.90076	0.002165
7409.97209	0.002131
7408.04341	0.002120
7406.11474	0.002141
7404.18606	0.002146
7402.25739	0.002126
7400.32871	0.002130
7398.40003	0.002165
7396.47136	0.002178
7394.54268	0.002167
7392.61401	0.002182
7390.68533	0.002218
7388.75666	0.002213
7386.82798	0.002186
7384.89930	0.002200
7382.97063	0.002227
7381.04195	0.002208
7379.11328	0.002175
7377.18460	0.002195
7375.25593	0.002229
7373.32725	0.002220
7371.39857	0.002212
7369.46990	0.002244
7367.54122	0.002268
7365.61255	0.002248
7363.68387	0.002241
7361.75520	0.002281
7359.82652	0.002314
7357.89784	0.002294
7355.96917	0.002262
7354.04049	0.002268
7352.11182	0.002287
7350.18314	0.002279
7348.25447	0.002274
7346.32579	0.002304
7344.39711	0.002328
7342.46844	0.002313
7340.53976	0.002299
7338.61109	0.002319
7336.68241	0.002332
7334.75374	0.002310
7332.82506	0.002308
7330.89638	0.002353
7328.96771	0.002374
7327.03903	0.002337
7325.11036	0.002318
7323.18168	0.002350
7321.25301	0.002368
7319.32433	0.002345
7317.39565	0.002345
7315.46698	0.002380
7313.53830	0.002383
7311.60963	0.002348
7309.68095	0.002341
7307.75228	0.002385
7305.82360	0.002410
7303.89492	0.002393
7301.96625	0.002403
7300.03757	0.002440
7298.10890	0.002437
7296.18022	0.002417
7294.25155	0.002441
7292.32287	0.002480
7290.39419	0.002468
7288.46552	0.002432
7286.53684	0.002447
7284.60817	0.002485
7282.67949	0.002475
7280.75082	0.002452
7278.82214	0.002482
7276.89346	0.002515
7274.96479	0.002490
7273.03611	0.002468
7271.10744	0.002513
7269.17876	0.002565
7267.25009	0.002547
7265.32141	0.002505
7263.39273	0.002524
7261.46406	0.002561
7259.53538	0.002536
7257.60671	0.002492
7255.67803	0.002506
7253.74936	0.002546
7251.82068	0.002534
7249.89200	0.002513
7247.96333	0.002562
7246.03465	0.002620
7244.10598	0.002607
7242.17730	0.002581
7240.24863	0.002607
7238.31995	0.002626
7236.39127	0.002589
7234.46260	0.002568
7232.53392	0.002608
7230.60525	0.002634
7228.67657	0.002609
7226.74790	0.002601
7224.81922	0.002642
7222.89054	0.002660
7220.96187	0.002632
7219.03319	0.002634
7217.10452	0.002668
7215.17584	0.002657
7213.24717	0.002612
7211.31849	0.002616
7209.38981	0.002670
7207.46114	0.002696
7205.53246	0.002679
7203.60379	0.002680
7201.67511	0.002700
7199.74644	0.002684
7197.81776	0.002650
7195.88908	0.002657
7193.96041	0.002688
7192.03173	0.002685
7190.10306	0.002665
7188.17438	0.002690
7186.24571	0.002742
7184.31703	0.002754
7182.38835	0.002742
7180.45968	0.002756
7178.53100	0.002779
7176.60233	0.002771
7174.67365	0.002766
7172.74498	0.002805
7170.81630	0.002832
7168.88762	0.002798
7166.95895	0.002770
7165.03027	0.002797
7163.10160	0.002825
7161.17292	0.002814
7159.24425	0.002810
7157.31557	0.002843
7155.38689	0.002873
7153.45822	0.002858
7151.52954	0.002839
7149.60087	0.002862
7147.67219	0.002884
7145.74352	0.002860
7143.81484	0.002843
7141.88616	0.002884
7139.95749	0.002912
7138.02881	0.002873
7136.10014	0.002847
7134.17146	0.002890
7132.24279	0.002925
7130.31411	0.002899
7128.38543	0.002879
7126.45676	0.002912
7124.52808	0.002938
7122.59941	0.002918
7120.67073	0.002910
7118.74206	0.002951
7116.81338	0.002972
7114.88470	0.002940
7112.95603	0.002928
7111.02735	0.002960
7109.09868	0.002974
7107.17000	0.002959
7105.24133	0.002976
7103.31265	0.003028
7101.38397	0.003042
7099.45530	0.003008
7097.52662	0.003002
7095.59795	0.003033
7093.66927	0.003031
7091.74060	0.003008
7089.81192	0.003031
7087.88324	0.003072
7085.95457	0.003050
7084.02589	0.002995
7082.09722	0.003002
7080.16854	0.003046
7078.23987	0.003046
7076.31119	0.003026
7074.38251	0.003049
7072.45384	0.003087
7070.52516	0.003079
7068.59649	0.003056
7066.66781	0.003086
7064.73914	0.003135
7062.81046	0.003132
7060.88178	0.003102
7058.95311	0.003117
7057.02443	0.003151
7055.09576	0.003137
7053.16708	0.003123
7051.23841	0.003174
7049.30973	0.003213
7047.38105	0.003178
7045.45238	0.003145
7043.52370	0.003171
7041.59503	0.003202
7039.66635	0.003190
7037.73768	0.003187
7035.80900	0.003223
7033.88032	0.003227
7031.95165	0.003184
7030.02297	0.003189
7028.09430	0.003264
7026.16562	0.003305
7024.23695	0.003264
7022.30827	0.003242
7020.37959	0.003290
7018.45092	0.003318
7016.52224	0.003292
7014.59357	0.003289
7012.66489	0.003324
7010.73622	0.003321
7008.80754	0.003288
7006.87886	0.003305
7004.95019	0.003346
7003.02151	0.003320
7001.09284	0.003265
6999.16416	0.003286
6997.23549	0.003346
6995.30681	0.003337
6993.37813	0.003283
6991.44946	0.003287
6989.52078	0.003338
6987.59211	0.003354
6985.66343	0.003333
6983.73476	0.003344
6981.80608	0.003380
6979.87740	0.003372
6977.94873	0.003342
6976.02005	0.003364
6974.09138	0.003409
6972.16270	0.003410
6970.23403	0.003407
6968.30535	0.003451
6966.37667	0.003483
6964.44800	0.003460
6962.51932	0.003442
6960.59065	0.003479
6958.66197	0.003516
6956.73330	0.003494
6954.80462	0.003467
6952.87594	0.003503
6950.94727	0.003541
6949.01859	0.003507
6947.08992	0.003472
6945.16124	0.003511
6943.23257	0.003560
6941.30389	0.003550
6939.37521	0.003531
6937.44654	0.003555
6935.51786	0.003568
6933.58919	0.003527
6931.66051	0.003501
6929.73184	0.003545
6927.80316	0.003597
6925.87448	0.003590
6923.94581	0.003576
6922.01713	0.003605
6920.08846	0.003618
6918.15978	0.003588
6916.23111	0.003593
6914.30243	0.003665
6912.37375	0.003712
6910.44508	0.003688
6908.51640	0.003665
6906.58773	0.003687
6904.65905	0.003699
6902.73038	0.003660
6900.80170	0.003633
6898.87302	0.003671
6896.94435	0.003701
6895.01567	0.003675
6893.08700	0.003670
6891.15832	0.003719
6889.22965	0.003744
6887.30097	0.003722
6885.37229	0.003723
6883.44362	0.003757
6881.51494	0.003769
6879.58627	0.003757
6877.65759	0.003779
6875.72892	0.003826
6873.80024	0.003829
6871.87156	0.003808
6869.94289	0.003834
6868.01421	0.003867
6866.08554	0.003837
6864.15686	0.003787
6862.22819	0.003794
6860.29951	0.003830
6858.37083	0.003827
6856.44216	0.003809
6854.51348	0.003832
6852.58481	0.003872
6850.65613	0.003882
6848.72746	0.003886
6846.79878	0.003917
6844.87010	0.003941
6842.94143	0.003911
6841.01275	0.003878
6839.08408	0.003918
6837.15540	0.003978
6835.22673	0.003971
6833.29805	0.003947
6831.36937	0.003989
6829.44070	0.004054
6827.51202	0.004055
6825.58335	0.004030
6823.65467	0.004055
6821.72600	0.004082
6819.79732	0.004051
6817.86864	0.004025
6815.93997	0.004063
6814.01129	0.004106
6812.08262	0.004099
6810.15394	0.004095
6808.22527	0.004132
6806.29659	0.004157
6804.36791	0.004135
6802.43924	0.004128
6800.51056	0.004186
6798.58189	0.004231
6796.65321	0.004195
6794.72454	0.004154
6792.79586	0.004165
6790.86718	0.004173
6788.93851	0.004146
6787.00983	0.004152
6785.08116	0.004216
6783.15248	0.004258
6781.22381	0.004243
6779.29513	0.004238
6777.36645	0.004264
6775.43778	0.004266
6773.50910	0.004248
6771.58043	0.004277
6769.65175	0.004329
6767.72308	0.004320
6765.79440	0.004284
6763.86572	0.004311
6761.93705	0.004353
6760.00837	0.004329
6758.07970	0.004289
6756.15102	0.004319
6754.22235	0.004374
6752.29367	0.004362
6750.36499	0.004328
6748.43632	0.004359
6746.50764	0.004407
6744.57897	0.004399
6742.65029	0.004378
6740.72162	0.004402
6738.79294	0.004434
6736.86426	0.004422
6734.93559	0.004408
6733.00691	0.004448
6731.07824	0.004493
6729.14956	0.004476
6727.22089	0.004456
6725.29221	0.004496
6723.36353	0.004528
6721.43486	0.004495
6719.50618	0.004466
6717.57751	0.004504
6715.64883	0.004545
6713.72016	0.004523
6711.79148	0.004504
6709.86280	0.004554
6707.93413	0.004597
6706.00545	0.004573
6704.07678	0.004555
6702.14810	0.004604
6700.21943	0.004650
6698.29075	0.004625
6696.36207	0.004596
6694.43340	0.004621
6692.50472	0.004644
6690.57605	0.004631
6688.64737	0.004636
6686.71870	0.004679
6684.79002	0.004689
6682.86134	0.004643
6680.93267	0.004630
6679.00399	0.004678
6677.07532	0.004709
6675.14664	0.004711
6673.21797	0.004744
6671.28929	0.004794
6669.36061	0.004788
6667.43194	0.004748
6665.50326	0.004753
6663.57459	0.004799
6661.64591	0.004814
6659.71724	0.004793
6657.78856	0.004794
6655.85988	0.004816
6653.93121	0.004803
6652.00253	0.004772
6650.07386	0.004800
6648.14518	0.004877
6646.21651	0.004909
6644.28783	0.004895
6642.35915	0.004914
6640.43048	0.004954
6638.50180	0.004929
6636.57313	0.004876
6634.64445	0.004905
6632.71578	0.004976
6630.78710	0.004976
6628.85842	0.004939
6626.92975	0.004966
6625.00107	0.005029
6623.07240	0.005038
6621.14372	0.005016
6619.21505	0.005043
6617.28637	0.005094
6615.35769	0.005081
6613.42902	0.005037
6611.50034	0.005051
6609.57167	0.005082
6607.64299	0.005055
6605.71432	0.005024
6603.78564	0.005066
6601.85696	0.005130
6599.92829	0.005129
6597.99961	0.005108
6596.07094	0.005146
6594.14226	0.005200
6592.21359	0.005206
6590.28491	0.005204
6588.35623	0.005246
6586.42756	0.005274
6584.49888	0.005235
6582.57021	0.005210
6580.64153	0.005261
6578.71286	0.005302
6576.78418	0.005274
6574.85550	0.005257
6572.92683	0.005299
6570.99815	0.005319
6569.06948	0.005285
6567.14080	0.005286
6565.21213	0.005350
6563.28345	0.005386
6561.35477	0.005360
6559.42610	0.005354
6557.49742	0.005400
6555.56875	0.005417
6553.64007	0.005389
6551.71140	0.005408
6549.78272	0.005482
6547.85404	0.005512
6545.92537	0.005483
6543.99669	0.005478
6542.06802	0.005515
6540.13934	0.005531
6538.21067	0.005518
6536.28199	0.005536
6534.35331	0.005576
6532.42464	0.005566
6530.49596	0.005528
6528.56729	0.005545
6526.63861	0.005595
6524.70994	0.005589
6522.78126	0.005559
6520.85258	0.005596
6518.92391	0.005663
6516.99523	0.005659
6515.06656	0.005619
6513.13788	0.005635
6511.20921	0.005680
6509.28053	0.005676
6507.35185	0.005662
6505.42318	0.005713
6503.49450	0.005769
6501.56583	0.005741
6499.63715	0.005689
6497.70848	0.005718
6495.77980	0.005776
6493.85112	0.005759
6491.92245	0.005730
6489.99377	0.005785
6488.06510	0.005845
6486.13642	0.005827
6484.20775	0.005798
6482.27907	0.005830
6480.35039	0.005873
6478.42172	0.005867
6476.49304	0.005854
6474.56437	0.005890
6472.63569	0.005919
6470.70702	0.005888
6468.77834	0.005871
6466.84966	0.005923
6464.92099	0.005969
6462.99231	0.005956
6461.06364	0.005955
6459.13496	0.006008
6457.20629	0.006042
6455.27761	0.006012
6453.34893	0.005995
6451.42026	0.006053
6449.49158	0.006100
6447.56291	0.006073
6445.63423	0.006059
6443.70556	0.006089
6441.77688	0.006093
6439.84820	0.006076
6437.91953	0.006107
6435.99085	0.006181
6434.06218	0.006209
6432.13350	0.006173
6430.20483	0.006165
6428.27615	0.006208
6426.34747	0.006212
6424.41880	0.006174
6422.49012	0.006201
6420.56145	0.006289
6418.63277	0.006317
6416.70410	0.006285
6414.77542	0.006294
6412.84674	0.006342
6410.91807	0.006349
6408.98939	0.006321
6407.06072	0.006338
6405.13204	0.006398
6403.20337	0.006411
6401.27469	0.006370
6399.34601	0.006372
6397.41734	0.006429
6395.48866	0.006440
6393.55999	0.006409
6391.63131	0.006440
6389.70264	0.006507
6387.77396	0.006515
6385.84528	0.006499
6383.91661	0.006543
6381.98793	0.006587
6380.05926	0.006546
6378.13058	0.006499
6376.20191	0.006553
6374.27323	0.006630
6372.34455	0.006609
6370.41588	0.006561
6368.48720	0.006599
6366.55853	0.006657
6364.62985	0.006645
6362.70118	0.006617
6360.77250	0.006651
6358.84382	0.006695
6356.91515	0.006676
6354.98647	0.006658
6353.05780	0.006707
6351.12912	0.006750
6349.20045	0.006732
6347.27177	0.006723
6345.34309	0.006778
6343.41442	0.006829
6341.48574	0.006815
6339.55707	0.006797
6337.62839	0.006844
6335.69972	0.006887
6333.77104	0.006849
6331.84236	0.006810
6329.91369	0.006866
6327.98501	0.006931
6326.05634	0.006907
6324.12766	0.006880
6322.19899	0.006940
6320.27031	0.007009
6318.34163	0.007004
6316.41296	0.006992
6314.48428	0.007027
6312.55561	0.007055
6310.62693	0.007045
6308.69826	0.007060
6306.76958	0.007117
6304.84090	0.007133
6302.91223	0.007093
6300.98355	0.007089
6299.05488	0.007139
6297.12620	0.007162
6295.19753	0.007144
6293.26885	0.007167
6291.34017	0.007233
6289.41150	0.007244
6287.48282	0.007195
6285.55415	0.007197
6283.62547	0.007259
6281.69680	0.007275
6279.76812	0.007242
6277.83944	0.007255
6275.91077	0.007314
6273.98209	0.007324
6272.05342	0.007298
6270.12474	0.007336
6268.19607	0.007408
6266.26739	0.007408
6264.33871	0.007369
6262.41004	0.007408
6260.48136	0.007506
6258.55269	0.007527
6256.62401	0.007473
6254.69534	0.007485
6252.76666	0.007556
6250.83798	0.007556
6248.90931	0.007506
6246.98063	0.007535
6245.05196	0.007617
6243.12328	0.007621
6241.19461	0.007587
6239.26593	0.007632
6237.33725	0.007692
6235.40858	0.007669
6233.47990	0.007641
6231.55123	0.007690
6229.62255	0.007736
6227.69388	0.007707
6225.76520	0.007686
6223.83652	0.007735
6221.90785	0.007772
6219.97917	0.007741
6218.05050	0.007729
6216.12182	0.007806
6214.19315	0.007870
6212.26447	0.007838
6210.33579	0.007821
6208.40712	0.007903
6206.47844	0.007965
6204.54977	0.007923
6202.62109	0.007893
6200.69242	0.007958
6198.76374	0.008006
6196.83506	0.007964
6194.90639	0.007951
6192.97771	0.008035
6191.04904	0.008078
6189.12036	0.008022
6187.19169	0.008005
6185.26301	0.008084
6183.33433	0.008134
6181.40566	0.008094
6179.47698	0.008074
6177.54831	0.008124
6175.61963	0.008158
6173.69096	0.008146
6171.76228	0.008176
6169.83360	0.008257
6167.90493	0.008285
6165.97625	0.008240
6164.04758	0.008240
6162.11890	0.008308
6160.19023	0.008326
6158.26155	0.008283
6156.33287	0.008296
6154.40420	0.008358
6152.47552	0.008367
6150.54685	0.008342
6148.61817	0.008370
6146.68950	0.008429
6144.76082	0.008441
6142.83214	0.008443
6140.90347	0.008511
6138.97479	0.008589
6137.04612	0.008579
6135.11744	0.008526
6133.18877	0.008552
6131.26009	0.008616
6129.33141	0.008599
6127.40274	0.008550
6125.47406	0.008595
6123.54539	0.008685
6121.61671	0.008697
6119.68804	0.008654
6117.75936	0.008666
6115.83068	0.008710
6113.90201	0.008698
6111.97333	0.008678
6110.04466	0.008741
6108.11598	0.008818
6106.18731	0.008805
6104.25863	0.008778
6102.32995	0.008846
6100.40128	0.008927
6098.47260	0.008907
6096.54393	0.008864
6094.61525	0.008913
6092.68658	0.008976
6090.75790	0.008943
6088.82922	0.008885
6086.90055	0.008923
6084.97187	0.009005
6083.04320	0.009018
6081.11452	0.009005
6079.18585	0.009049
6077.25717	0.009091
6075.32849	0.009065
6073.39982	0.009063
6071.47114	0.009159
6069.54247	0.009225
6067.61379	0.009183
6065.68512	0.009168
6063.75644	0.009244
6061.82776	0.009292
6059.89909	0.009256
6057.97041	0.009237
6056.04174	0.009295
6054.11306	0.009338
6052.18439	0.009305
6050.25571	0.009306
6048.32703	0.009393
6046.39836	0.009433
6044.46968	0.009381
6042.54101	0.009376
6040.61233	0.009467
6038.68366	0.009516
6036.75498	0.009465
6034.82630	0.009442
6032.89763	0.009504
6030.96895	0.009544
6029.04028	0.009520
6027.11160	0.009529
6025.18293	0.009604
6023.25425	0.009641
6021.32557	0.009614
6019.39690	0.009639
6017.46822	0.009736
6015.53955	0.009762
6013.61087	0.009702
6011.68220	0.009693
6009.75352	0.009757
6007.82484	0.009779
6005.89617	0.009753
6003.96749	0.009788
6002.03882	0.009871
6000.11014	0.009881
5998.18147	0.009844
5996.25279	0.009881
5994.32411	0.009965
5992.39544	0.009973
5990.46676	0.009930
5988.53809	0.009945
5986.60941	0.009998
5984.68074	0.009991
5982.75206	0.009967
5980.82338	0.010038
5978.89471	0.010143
5976.96603	0.010145
5975.03736	0.010095
5973.10868	0.010125
5971.18001	0.010185
5969.25133	0.010155
5967.32265	0.010113
5965.39398	0.010179
5963.46530	0.010268
5961.53663	0.010265
5959.60795	0.010248
5957.67928	0.010310
5955.75060	0.010380
5953.82192	0.010354
5951.89325	0.010313
5949.96457	0.010372
5948.03590	0.010439
5946.10722	0.010404
5944.17855	0.010369
5942.24987	0.010443
5940.32119	0.010536
5938.39252	0.010543
5936.46384	0.010527
5934.53517	0.010574
5932.60649	0.010613
5930.67782	0.010582
5928.74914	0.010579
5926.82046	0.010653
5924.89179	0.010690
5922.96311	0.010646
5921.03444	0.010637
5919.10576	0.010726
5917.17709	0.010806
5915.24841	0.010789
5913.31973	0.010766
5911.39106	0.010824
5909.46238	0.010870
5907.53371	0.010843
5905.60503	0.010870
5903.67636	0.010975
5901.74768	0.011012
5899.81900	0.010957
5897.89033	0.010953
5895.96165	0.011041
5894.03298	0.011086
5892.10430	0.011033
5890.17563	0.011027
5888.24695	0.011127
5886.31827	0.011189
5884.38960	0.011159
5882.46092	0.011176
5880.53225	0.011258
5878.60357	0.011261
5876.67490	0.011187
5874.74622	0.011194
5872.81755	0.011291
5870.88887	0.011338
5868.96019	0.011320
5867.03152	0.011353
5865.10284	0.011430
5863.17417	0.011417
5861.24549	0.011342
5859.31682	0.011364
5857.38814	0.011475
5855.45946	0.011516
5853.53079	0.011481
5851.60211	0.011501
5849.67344	0.011580
5847.74476	0.011597
5845.81609	0.011564
5843.88741	0.011608
5841.95873	0.011704
5840.03006	0.011715
5838.10138	0.011677
5836.17271	0.011722
5834.24403	0.011792
5832.31536	0.011761
5830.38668	0.011704
5828.45800	0.011759
5826.52933	0.011859
5824.60065	0.011870
5822.67198	0.011851
5820.74330	0.011913
5818.81463	0.011994
5816.88595	0.011988
5814.95727	0.011958
5813.02860	0.012004
5811.09992	0.012076
5809.17125	0.012081
5807.24257	0.012075
5805.31390	0.012142
5803.38522	0.012205
5801.45654	0.012177
5799.52787	0.012140
5797.59919	0.012197
5795.67052	0.012270
5793.74184	0.012254
5791.81317	0.012238
5789.88449	0.012314
5787.95581	0.012374
5786.02714	0.012325
5784.09846	0.012304
5782.16979	0.012419
5780.24111	0.012527
5778.31244	0.012504
5776.38376	0.012469
5774.45508	0.012530
5772.52641	0.012581
5770.59773	0.012547
5768.66906	0.012558
5766.74038	0.012671
5764.81171	0.012739
5762.88303	0.012684
5760.95435	0.012650
5759.02568	0.012731
5757.09700	0.012792
5755.16833	0.012756
5753.23965	0.012757
5751.31098	0.012853
5749.38230	0.012894
5747.45362	0.012836
5745.52495	0.012838
5743.59627	0.012941
5741.66760	0.012980
5739.73892	0.012917
5737.81025	0.012931
5735.88157	0.013046
5733.95289	0.013086
5732.02422	0.013029
5730.09554	0.013038
5728.16687	0.013136
5726.23819	0.013175
5724.30952	0.013141
5722.38084	0.013176
5720.45216	0.013276
5718.52349	0.013275
5716.59481	0.013191
5714.66614	0.013218
5712.73746	0.013352
5710.80879	0.013393
5708.88011	0.013332
5706.95143	0.013339
5705.02276	0.013433
5703.09408	0.013477
5701.16541	0.013451
5699.23673	0.013478
5697.30806	0.013560
5695.37938	0.013562
5693.45070	0.013515
5691.52203	0.013572
5689.59335	0.013680
5687.66468	0.013692
5685.73600	0.013660
5683.80733	0.013721
5681.87865	0.013810
5679.94997	0.013788
5678.02130	0.013748
5676.09262	0.013845
5674.16395	0.013971
5672.23527	0.013955
5670.30660	0.013902
5668.37792	0.013970
5666.44924	0.014066
5664.52057	0.014056
5662.59189	0.014028
5660.66322	0.014095
5658.73454	0.014172
5656.80587	0.014144
5654.87719	0.014105
5652.94851	0.014179
5651.01984	0.014272
5649.09116	0.014254
5647.16249	0.014231
5645.23381	0.014314
5643.30514	0.014397
5641.37646	0.014371
5639.44778	0.014346
5637.51911	0.014437
5635.59043	0.014526
5633.66176	0.014492
5631.73308	0.014461
5629.80441	0.014544
5627.87573	0.014606
5625.94705	0.014557
5624.01838	0.014542
5622.08970	0.014639
5620.16103	0.014714
5618.23235	0.014700
5616.30368	0.014715
5614.37500	0.014805
5612.44632	0.014851
5610.51765	0.014799
5608.58897	0.014792
5606.66030	0.014905
5604.73162	0.014977
5602.80295	0.014917
5600.87427	0.014888
5598.94559	0.014976
5597.01692	0.015033
5595.08824	0.014994
5593.15957	0.015006
5591.23089	0.015125
5589.30222	0.015195
5587.37354	0.015166
5585.44486	0.015183
5583.51619	0.015287
5581.58751	0.015320
5579.65884	0.015245
5577.73016	0.015260
5575.80149	0.015411
5573.87281	0.015471
5571.94413	0.015381
5570.01546	0.015359
5568.08678	0.015463
5566.15811	0.015517
5564.22943	0.015474
5562.30076	0.015488
5560.37208	0.015589
5558.44340	0.015617
5556.51473	0.015567
5554.58605	0.015605
5552.65738	0.015718
5550.72870	0.015743
5548.80003	0.015696
5546.87135	0.015735
5544.94267	0.015833
5543.01400	0.015826
5541.08532	0.015758
5539.15665	0.015816
5537.22797	0.015961
5535.29930	0.015992
5533.37062	0.015934
5531.44194	0.015972
5529.51327	0.016091
5527.58459	0.016112
5525.65592	0.016060
5523.72724	0.016114
5521.79857	0.016223
5519.86989	0.016227
5517.94121	0.016187
5516.01254	0.016249
5514.08386	0.016356
5512.15519	0.016361
5510.22651	0.016323
5508.29784	0.016390
5506.36916	0.016488
5504.44048	0.016469
5502.51181	0.016422
5500.58313	0.016497
5498.65446	0.016601
5496.72578	0.016583
5494.79711	0.016543
5492.86843	0.016646
5490.93975	0.016774
5489.01108	0.016754
5487.08240	0.016701
5485.15373	0.016783
5483.22505	0.016885
5481.29638	0.016862
5479.36770	0.016826
5477.43902	0.016890
5475.51035	0.016928
5473.58167	0.016851
5471.65300	0.016820
5469.72432	0.016931
5467.79565	0.017025
5465.86697	0.016994
5463.93829	0.016975
5462.00962	0.017079
5460.08094	0.017181
5458.15227	0.017182
5456.22359	0.017196
5454.29492	0.017297
5452.36624	0.017361
5450.43756	0.017313
5448.50889	0.017299
5446.58021	0.017396
5444.65154	0.017457
5442.72286	0.017421
5440.79419	0.017443
5438.86551	0.017561
5436.93683	0.017600
5435.00816	0.017535
5433.07948	0.017554
5431.15081	0.017682
5429.22213	0.017736
5427.29346	0.017684
5425.36478	0.017688
5423.43610	0.017800
5421.50743	0.017855
5419.57875	0.017784
5417.65008	0.017769
5415.72140	0.017884
5413.79273	0.017948
5411.86405	0.017903
5409.93537	0.017922
5408.00670	0.018042
5406.07802	0.018088
5404.14935	0.018040
5402.22067	0.018074
5400.29200	0.018192
5398.36332	0.018214
5396.43464	0.018139
5394.50597	0.018162
5392.57729	0.018289
5390.64862	0.018329
5388.71994	0.018286
5386.79127	0.018345
5384.86259	0.018498
5382.93391	0.018543
5381.00524	0.018477
5379.07656	0.018489
5377.14789	0.018577
5375.21921	0.018574
5373.29054	0.018515
5371.36186	0.018578
5369.43318	0.018717
5367.50451	0.018744
5365.57583	0.018700
5363.64716	0.018766
5361.71848	0.018885
5359.78981	0.018883
5357.86113	0.018824
5355.93245	0.018877
5354.00378	0.019001
5352.07510	0.019031
5350.14643	0.018997
5348.21775	0.019056
5346.28908	0.019166
5344.36040	0.019170
5342.43172	0.019125
5340.50305	0.019174
5338.57437	0.019259
5336.64570	0.019260
5334.71702	0.019254
5332.78835	0.019348
5330.85967	0.019432
5328.93099	0.019378
5327.00232	0.019331
5325.07364	0.019442
5323.14497	0.019564
5321.21629	0.019544
5319.28762	0.019509
5317.35894	0.019607
5315.43026	0.019711
5313.50159	0.019676
5311.57291	0.019631
5309.64424	0.019723
5307.71556	0.019839
5305.78689	0.019839
5303.85821	0.019831
5301.92953	0.019925
5300.00086	0.020005
5298.07218	0.019972
5296.14351	0.019963
5294.21483	0.020078
5292.28616	0.020155
5290.35748	0.020086
5288.42880	0.020057
5286.50013	0.020182
5284.57145	0.020290
5282.64278	0.020272
5280.71410	0.020266
5278.78543	0.020365
5276.85675	0.020430
5274.92807	0.020370
5272.99940	0.020358
5271.07072	0.020493
5269.14205	0.020569
5267.21337	0.020484
5265.28470	0.020451
5263.35602	0.020579
5261.42734	0.020690
5259.49867	0.020674
5257.56999	0.020674
5255.64132	0.020787
5253.71264	0.020864
5251.78397	0.020819
5249.85529	0.020807
5247.92661	0.020902
5245.99794	0.020945
5244.06926	0.020897
5242.14059	0.020940
5240.21191	0.021101
5238.28324	0.021185
5236.35456	0.021150
5234.42588	0.021158
5232.49721	0.021242
5230.56853	0.021260
5228.63986	0.021206
5226.71118	0.021245
5224.78251	0.021382
5222.85383	0.021419
5220.92515	0.021346
5218.99648	0.021385
5217.06780	0.021551
5215.13913	0.021624
5213.21045	0.021574
5211.28178	0.021590
5209.35310	0.021681
5207.42442	0.021688
5205.49575	0.021644
5203.56707	0.021711
5201.63840	0.021835
5199.70972	0.021837
5197.78105	0.021771
5195.85237	0.021840
5193.92369	0.021993
5191.99502	0.022019
5190.06634	0.021970
5188.13767	0.022050
5186.20899	0.022190
5184.28032	0.022173
5182.35164	0.022070
5180.42296	0.022120
5178.49429	0.022259
5176.56561	0.022266
5174.63694	0.022220
5172.70826	0.022305
5170.77959	0.022430
5168.85091	0.022425
5166.92223	0.022375
5164.99356	0.022445
5163.06488	0.022558
5161.13621	0.022543
5159.20753	0.022488
5157.27886	0.022593
5155.35018	0.022772
5153.42150	0.022803
5151.49283	0.022741
5149.56415	0.022795
5147.63548	0.022908
5145.70680	0.022906
5143.77813	0.022869
5141.84945	0.022964
5139.92077	0.023101
5137.99210	0.023101
5136.06342	0.023059
5134.13475	0.023141
5132.20607	0.023232
5130.27740	0.023182
5128.34872	0.023132
5126.42004	0.023248
5124.49137	0.023396
5122.56269	0.023412
5120.63402	0.023409
5118.70534	0.023505
5116.77667	0.023577
5114.84799	0.023527
5112.91931	0.023505
5110.99064	0.023629
5109.06196	0.023722
5107.13329	0.023651
5105.20461	0.023616
5103.27594	0.023752
5101.34726	0.023852
5099.41858	0.023782
5097.48991	0.023753
5095.56123	0.023906
5093.63256	0.024034
5091.70388	0.023992
5089.77521	0.023965
5087.84653	0.024076
5085.91785	0.024149
5083.98918	0.024090
5082.06050	0.024092
5080.13183	0.024248
5078.20315	0.024341
5076.27448	0.024260
5074.34580	0.024234
5072.41712	0.024375
5070.48845	0.024456
5068.55977	0.024403
5066.63110	0.024432
5064.70242	0.024589
5062.77375	0.024666
5060.84507	0.024601
5058.91639	0.024593
5056.98772	0.024716
5055.05904	0.024773
5053.13037	0.024710
5051.20169	0.024742
5049.27302	0.024894
5047.34434	0.024947
5045.41566	0.024890
5043.48699	0.024945
5041.55831	0.025109
5039.62964	0.025159
5037.70096	0.025089
5035.77229	0.025106
5033.84361	0.025222
5031.91493	0.025262
5029.98626	0.025227
5028.05758	0.025286
5026.12891	0.025424
5024.20023	0.025447
5022.27156	0.025360
5020.34288	0.025373
5018.41420	0.025505
5016.48553	0.025551
5014.55685	0.025502
5012.62818	0.025572
5010.69950	0.025740
5008.77083	0.025770
5006.84215	0.025687
5004.91347	0.025745
5002.98480	0.025914
5001.05612	0.025953
4999.12745	0.025901
4997.19877	0.025968
4995.27010	0.026095
4993.34142	0.026075
4991.41274	0.026003
4989.48407	0.026097
4987.55539	0.026256
4985.62672	0.026272
4983.69804	0.026220
4981.76937	0.026295
4979.84069	0.026436
4977.91201	0.026448
4975.98334	0.026397
4974.05466	0.026476
4972.12599	0.026612
4970.19731	0.026615
4968.26864	0.026569
4966.33996	0.026657
4964.41128	0.026784
4962.48261	0.026767
4960.55393	0.026712
4958.62526	0.026825
4956.69658	0.026990
4954.76791	0.026983
4952.83923	0.026922
4950.91055	0.027013
4948.98188	0.027127
4947.05320	0.027087
4945.12453	0.027026
4943.19585	0.027129
4941.26718	0.027284
4939.33850	0.027300
4937.40982	0.027276
4935.48115	0.027387
4933.55247	0.027508
4931.62380	0.027466
4929.69512	0.027425
4927.76645	0.027558
4925.83777	0.027681
4923.90909	0.027634
4921.98042	0.027585
4920.05174	0.027683
4918.12307	0.027773
4916.19439	0.027722
4914.26572	0.027722
4912.33704	0.027907
4910.40836	0.028042
4908.47969	0.027969
4906.55101	0.027926
4904.62234	0.028090
4902.69366	0.028239
4900.76499	0.028188
4898.83631	0.028133
4896.90763	0.028236
4894.97896	0.028315
4893.05028	0.028264
4891.12161	0.028277
4889.19293	0.028448
4887.26426	0.028563
4885.33558	0.028515
4883.40690	0.028510
4881.47823	0.028652
4879.54955	0.028742
4877.62088	0.028691
4875.69220	0.028693
4873.76353	0.028818
4871.83485	0.028882
4869.90617	0.028844
4867.97750	0.028896
4866.04882	0.029074
4864.12015	0.029165
4862.19147	0.029121
4860.26280	0.029158
4858.33412	0.029322
4856.40544	0.029381
4854.47677	0.029282
4852.54809	0.029275
4850.61942	0.029422
4848.69074	0.029481
4846.76207	0.029404
4844.83339	0.029441
4842.90471	0.029628
4840.97604	0.029695
4839.04736	0.029616
4837.11869	0.029657
4835.19001	0.029837
4833.26134	0.029905
4831.33266	0.029848
4829.40398	0.029882
4827.47531	0.030002
4825.54663	0.030016
4823.61796	0.029969
4821.68928	0.030061
4819.76061	0.030223
4817.83193	0.030230
4815.90325	0.030131
4813.97458	0.030176
4812.04590	0.030343
4810.11723	0.030404
4808.18855	0.030379
4806.25988	0.030472
4804.33120	0.030626
4802.40252	0.030620
4800.47385	0.030549
4798.54517	0.030655
4796.61650	0.030836
4794.68782	0.030850
4792.75915	0.030779
4790.83047	0.030838
4788.90179	0.030969
4786.97312	0.030973
4785.04444	0.030918
4783.11577	0.031005
4781.18709	0.031158
4779.25842	0.031176
4777.32974	0.031139
4775.40106	0.031231
4773.47239	0.031365
4771.54371	0.031360
4769.61504	0.031319
4767.68636	0.031430
4765.75769	0.031589
4763.82901	0.031597
4761.90033	0.031544
4759.97166	0.031617
4758.04298	0.031744
4756.11431	0.031766
4754.18563	0.031773
4752.25696	0.031910
4750.32828	0.032039
4748.39960	0.031994
4746.47093	0.031934
4744.54225	0.032041
4742.61358	0.032170
4740.68490	0.032161
4738.75623	0.032150
4736.82755	0.032279
4734.89887	0.032413
4732.97020	0.032401
4731.04152	0.032368
4729.11285	0.032466
4727.18417	0.032569
4725.25550	0.032549
4723.32682	0.032564
4721.39814	0.032732
4719.46947	0.032841
4717.54079	0.032769
4715.61212	0.032739
4713.68344	0.032887
4711.75477	0.033020
4709.82609	0.032999
4707.89741	0.032995
4705.96874	0.033133
4704.04006	0.033243
4702.11139	0.033219
4700.18271	0.033239
4698.25404	0.033395
4696.32536	0.033494
4694.39668	0.033436
4692.46801	0.033417
4690.53933	0.033558
4688.61066	0.033676
4686.68198	0.033652
4684.75331	0.033664
4682.82463	0.033805
4680.89595	0.033892
4678.96728	0.033853
4677.03860	0.033884
4675.10993	0.034056
4673.18125	0.034154
4671.25258	0.034095
4669.32390	0.034088
4667.39522	0.034235
4665.46655	0.034353
4663.53787	0.034332
4661.60920	0.034345
4659.68052	0.034494
4657.75185	0.034589
4655.82317	0.034545
4653.89449	0.034563
4651.96582	0.034716
4650.03714	0.034817
4648.10847	0.034801
4646.17979	0.034833
4644.25112	0.034961
4642.32244	0.034999
4640.39376	0.034924
4638.46509	0.034964
4636.53641	0.035142
4634.60774	0.035213
4632.67906	0.035160
4630.75039	0.035219
4628.82171	0.035397
4626.89303	0.035465
4624.96436	0.035423
4623.03568	0.035479
4621.10701	0.035622
4619.17833	0.035665
4617.24966	0.035645
4615.32098	0.035743
4613.39230	0.035915
4611.46363	0.035966
4609.53495	0.035908
4607.60628	0.035948
4605.67760	0.036102
4603.74893	0.036181
4601.82025	0.036173
4599.89157	0.036253
4597.96290	0.036401
4596.03422	0.036443
4594.10555	0.036419
4592.17687	0.036504
4590.24820	0.036648
4588.31952	0.036672
4586.39084	0.036642
4584.46217	0.036744
4582.53349	0.036895
4580.60482	0.036900
4578.67614	0.036836
4576.74747	0.036903
4574.81879	0.037057
4572.89011	0.037112
4570.96144	0.037104
4569.03276	0.037214
4567.10409	0.037379
4565.17541	0.037397
4563.24674	0.037345
4561.31806	0.037439
4559.38938	0.037613
4557.46071	0.037652
4555.53203	0.037614
4553.60336	0.037693
4551.67468	0.037826
4549.74601	0.037851
4547.81733	0.037852
4545.88865	0.037961
4543.95998	0.038077
4542.03130	0.038076
4540.10263	0.038059
4538.17395	0.038158
4536.24528	0.038286
4534.31660	0.038314
4532.38792	0.038330
4530.45925	0.038474
4528.53057	0.038631
4526.60190	0.038642
4524.67322	0.038621
4522.74455	0.038718
4520.81587	0.038837
4518.88719	0.038858
4516.95852	0.038885
4515.02984	0.039030
4513.10117	0.039185
4511.17249	0.039218
4509.24382	0.039220
4507.31514	0.039324
4505.38646	0.039426
4503.45779	0.039404
4501.52911	0.039412
4499.60044	0.039564
4497.67176	0.039691
4495.74309	0.039682
4493.81441	0.039689
4491.88573	0.039830
4489.95706	0.039965
4488.02838	0.039976
4486.09971	0.039984
4484.17103	0.040107
4482.24236	0.040234
4480.31368	0.040254
4478.38500	0.040287
4476.45633	0.040437
4474.52765	0.040559
4472.59898	0.040543
4470.67030	0.040551
4468.74163	0.040701
4466.81295	0.040824
4464.88427	0.040818
4462.95560	0.040843
4461.02692	0.040975
4459.09825	0.041050
4457.16957	0.041017
4455.24090	0.041073
4453.31222	0.041281
4451.38354	0.041426
4449.45487	0.041431
4447.52619	0.041482
4445.59752	0.041640
4443.66884	0.041727
4441.74017	0.041688
4439.81149	0.041696
4437.88281	0.041827
4435.95414	0.041942
4434.02546	0.041966
4432.09679	0.042025
4430.16811	0.042160
4428.23944	0.042221
4426.31076	0.042188
4424.38208	0.042245
4422.45341	0.042428
4420.52473	0.042548
4418.59606	0.042553
4416.66738	0.042616
4414.73871	0.042774
4412.81003	0.042856
4410.88135	0.042836
4408.95268	0.042891
4407.02400	0.043058
4405.09533	0.043162
4403.16665	0.043157
4401.23798	0.043209
4399.30930	0.043345
4397.38062	0.043413
4395.45195	0.043415
4393.52327	0.043498
4391.59460	0.043646
4389.66592	0.043711
4387.73725	0.043692
4385.80857	0.043755
4383.87989	0.043924
4381.95122	0.044043
4380.02254	0.044076
4378.09387	0.044145
4376.16519	0.044271
4374.23652	0.044341
4372.30784	0.044347
4370.37916	0.044427
4368.45049	0.044582
4366.52181	0.044656
4364.59314	0.044659
4362.66446	0.044740
4360.73579	0.044873
4358.80711	0.044916
4356.87843	0.044922
4354.94976	0.045040
4353.02108	0.045216
4351.09241	0.045315
4349.16373	0.045358
4347.23506	0.045436
4345.30638	0.045538
4343.37770	0.045575
4341.44903	0.045598
4339.52035	0.045744
4337.59168	0.045936
4335.66300	0.045982
4333.73433	0.045950
4331.80565	0.046040
4329.87697	0.046205
4327.94830	0.046274
4326.01962	0.046295
4324.09095	0.046387
4322.16227	0.046496
4320.23360	0.046531
4318.30492	0.046553
4316.37624	0.046674
4314.44757	0.046841
4312.51889	0.046927
4310.59022	0.046968
4308.66154	0.047067
4306.73287	0.047176
4304.80419	0.047220
4302.87551	0.047274
4300.94684	0.047414
4299.01816	0.047554
4297.08949	0.047603
4295.16081	0.047650
4293.23214	0.047802
4291.30346	0.047973
4289.37478	0.048041
4287.44611	0.048069
4285.51743	0.048170
4283.58876	0.048290
4281.66008	0.048338
4279.73141	0.048378
4277.80273	0.048494
4275.87405	0.048616
4273.94538	0.048673
4272.01670	0.048743
4270.08803	0.048892
4268.15935	0.049031
4266.23068	0.049083
4264.30200	0.049124
4262.37332	0.049235
4260.44465	0.049338
4258.51597	0.049366
4256.58730	0.049410
4254.65862	0.049539
4252.72995	0.049668
4250.80127	0.049728
4248.87259	0.049797
4246.94392	0.049950
4245.01524	0.050094
4243.08657	0.050142
4241.15789	0.050199
4239.22922	0.050334
4237.30054	0.050437
4235.37186	0.050466
4233.44319	0.050520
4231.51451	0.050640
4229.58584	0.050759
4227.65716	0.050838
4225.72849	0.050938
4223.79981	0.051079
4221.87113	0.051164
4219.94246	0.051163
4218.01378	0.051191
4216.08511	0.051328
4214.15643	0.051488
4212.22776	0.051574
4210.29908	0.051647
4208.37040	0.051789
4206.44173	0.051926
4204.51305	0.051972
4202.58438	0.052027
4200.65570	0.052180
4198.72703	0.052321
4196.79835	0.052368
4194.86968	0.052448
4192.94100	0.052614
4191.01232	0.052726
4189.08365	0.052750
4187.15497	0.052802
4185.22630	0.052903
4183.29762	0.052992
4181.36895	0.053072
4179.44027	0.053187
4177.51159	0.053329
4175.58292	0.053429
4173.65424	0.053457
4171.72557	0.053504
4169.79689	0.053646
4167.86822	0.053804
4165.93954	0.053909
4164.01086	0.054022
4162.08219	0.054167
4160.15351	0.054273
4158.22484	0.054337
4156.29616	0.054436
4154.36749	0.054552
4152.43881	0.054607
4150.51013	0.054642
4148.58146	0.054748
4146.65278	0.054882
4144.72411	0.054955
4142.79543	0.055010
4140.86676	0.055133
4138.93808	0.055304
4137.00940	0.055424
4135.08073	0.055472
4133.15205	0.055545
4131.22338	0.055688
4129.29470	0.055817
4127.36603	0.055909
4125.43735	0.056019
4123.50867	0.056138
4121.58000	0.056217
4119.65132	0.056272
4117.72265	0.056379
4115.79397	0.056549
4113.86530	0.056688
4111.93662	0.056753
4110.00794	0.056836
4108.07927	0.056989
4106.15059	0.057114
4104.22192	0.057181
4102.29324	0.057287
4100.36457	0.057433
4098.43589	0.057534
4096.50721	0.057603
4094.57854	0.057710
4092.64986	0.057842
4090.72119	0.057951
4088.79251	0.058049
4086.86384	0.058173
4084.93516	0.058301
4083.00648	0.058378
4081.07781	0.058435
4079.14913	0.058540
4077.22046	0.058665
4075.29178	0.058751
4073.36311	0.058824
4071.43443	0.058934
4069.50575	0.059065
4067.57708	0.059179
4065.64840	0.059276
4063.71973	0.059392
4061.79105	0.059533
4059.86238	0.059659
4057.93370	0.059789
4056.00502	0.059953
4054.07635	0.060100
4052.14767	0.060185
4050.21900	0.060240
4048.29032	0.060324
4046.36165	0.060468
4044.43297	0.060619
4042.50429	0.060720
4040.57562	0.060819
4038.64694	0.060967
4036.71827	0.061110
4034.78959	0.061199
4032.86092	0.061275
4030.93224	0.061376
4029.00356	0.061483
4027.07489	0.061593
4025.14621	0.061719
4023.21754	0.061842
4021.28886	0.061945
4019.36019	0.062057
4017.43151	0.062195
4015.50283	0.062317
4013.57416	0.062393
4011.64548	0.062453
4009.71681	0.062548
4007.78813	0.062694
4005.85946	0.062848
4003.93078	0.062967
4002.00210	0.063088
4000.07343	0.063238
3998.14475	0.063370
3996.21608	0.063475
3994.28740	0.063610
3992.35873	0.063765
3990.43005	0.063872
3988.50137	0.063940
3986.57270	0.064039
3984.64402	0.064175
3982.71535	0.064308
3980.78667	0.064438
3978.85800	0.064586
3976.92932	0.064717
3975.00064	0.064801
3973.07197	0.064885
3971.14329	0.065006
3969.21462	0.065138
3967.28594	0.065244
3965.35727	0.065322
3963.42859	0.065417
3961.49991	0.065581
3959.57124	0.065782
3957.64256	0.065932
3955.71389	0.066020
3953.78521	0.066093
3951.85654	0.066153
3949.92786	0.066216
3947.99918	0.066326
3946.07051	0.066445
3944.14183	0.066536
3942.21316	0.066659
3940.28448	0.066814
3938.35581	0.066957
3936.42713	0.067091
3934.49845	0.067182
3932.56978	0.067254
3930.64110	0.067402
3928.71243	0.067584
3926.78375	0.067678
3924.85508	0.067723
3922.92640	0.067819
3920.99772	0.067945
3919.06905	0.068057
3917.14037	0.068191
3915.21170	0.068381
3913.28302	0.068584
3911.35435	0.068742
3909.42567	0.068840
3907.49699	0.068830
3905.56832	0.068741
3903.63964	0.068750
3901.71097	0.068945
3899.78229	0.069235
3897.85362	0.069512
3895.92494	0.069698
3893.99626	0.069789
3892.06759	0.069904
3890.13891	0.070040
3888.21024	0.070020
3886.28156	0.069965
3884.35289	0.070173
3882.42421	0.070487
3880.49553	0.070691
3878.56686	0.070848
3876.63818	0.070920
3874.70951	0.070922
3872.78083	0.070947
3870.85216	0.071026
3868.92348	0.071237
3866.99480	0.071489
3865.06613	0.071640
3863.13745	0.071790
3861.20878	0.072014
3859.28010	0.072188
3857.35143	0.072148
3855.42275	0.071914
3853.49407	0.071819
3851.56540	0.072139
3849.63672	0.072641
3847.70805	0.072954
3845.77937	0.073041
3843.85070	0.073039
3841.92202	0.073033
3839.99334	0.073099
3838.06467	0.073307
3836.13599	0.073607
3834.20732	0.073852
3832.27864	0.074024
3830.34997	0.074198
3828.42129	0.074334
3826.49261	0.074380
3824.56394	0.074347
3822.63526	0.074333
3820.70659	0.074534
3818.77791	0.074862
3816.84924	0.075088
3814.92056	0.075289
3812.99188	0.075515
3811.06321	0.075615
3809.13453	0.075554
3807.20586	0.075563
3805.27718	0.075759
3803.34851	0.075937
3801.41983	0.076088
3799.49115	0.076309
3797.56248	0.076495
3795.63380	0.076674
3793.70513	0.076906
3791.77645	0.077101
3789.84778	0.077237
3787.91910	0.077347
3785.99042	0.077448
3784.06175	0.077559
3782.13307	0.077629
3780.20440	0.077677
3778.27572	0.077860
3776.34705	0.078156
3774.41837	0.078358
3772.48969	0.078380
3770.56102	0.078367
3768.63234	0.078488
3766.70367	0.078691
3764.77499	0.078882
3762.84632	0.079056
3760.91764	0.079203
3758.98896	0.079333
3757.06029	0.079423
3755.13161	0.079449
3753.20294	0.079398
3751.27426	0.079292
3749.34559	0.079332
3747.41691	0.079538
3745.48823	0.079730
3743.55956	0.079994
3741.63088	0.080313
3739.70221	0.080442
3737.77353	0.080372
3735.84486	0.080309
3733.91618	0.080480
3731.98750	0.080893
3730.05883	0.081278
3728.13015	0.081445
3726.20148	0.081502
3724.27280	0.081623
3722.34413	0.081807
3720.41545	0.081999
3718.48677	0.082184
3716.55810	0.082335
3714.62942	0.082323
3712.70075	0.082195
3710.77207	0.082280
3708.84340	0.082650
3706.91472	0.083039
3704.98604	0.083233
3703.05737	0.083284
3701.12869	0.083419
3699.20002	0.083667
3697.27134	0.083878
3695.34267	0.083992
3693.41399	0.084041
3691.48531	0.084038
3689.55664	0.084044
3687.62796	0.084214
3685.69929	0.084559
3683.77061	0.084896
3681.84194	0.085067
3679.91326	0.085071
3677.98458	0.084974
3676.05591	0.084895
3674.12723	0.084940
3672.19856	0.085035
3670.26988	0.085250
3668.34121	0.085701
3666.41253	0.086111
3664.48385	0.086285
3662.55518	0.086386
3660.62650	0.086508
3658.69783	0.086559
3656.76915	0.086577
3654.84048	0.086665
3652.91180	0.086650
3650.98312	0.086417
3649.05445	0.086235
3647.12577	0.086444
3645.19710	0.086995
3643.26842	0.087500
3641.33975	0.087797
3639.41107	0.088030
3637.48239	0.088247
3635.55372	0.088357
3633.62504	0.088300
3631.69637	0.088061
3629.76769	0.087856
3627.83902	0.088033
3625.91034	0.088463
3623.98166	0.088763
3622.05299	0.088842
3620.12431	0.088784
3618.19564	0.088782
3616.26696	0.088957
3614.33829	0.089179
3612.40961	0.089276
3610.48093	0.089279
3608.55226	0.089409
3606.62358	0.089693
3604.69491	0.089875
3602.76623	0.089918
3600.83756	0.090046
3598.90888	0.090249
3596.98020	0.090324
3595.05153	0.090329
3593.12285	0.090461
3591.19418	0.090601
3589.26550	0.090553
3587.33683	0.090553
3585.40815	0.090835
3583.47947	0.091167
3581.55080	0.091318
3579.62212	0.091411
3577.69345	0.091604
3575.76477	0.091806
3573.83610	0.091865
3571.90742	0.091795
3569.97874	0.091690
3568.05007	0.091696
3566.12139	0.091883
3564.19272	0.092111
3562.26404	0.092312
3560.33537	0.092535
3558.40669	0.092702
3556.47801	0.092776
3554.54934	0.092877
3552.62066	0.093038
3550.69199	0.093148
3548.76331	0.093168
3546.83464	0.093208
3544.90596	0.093337
3542.97728	0.093470
3541.04861	0.093570
3539.11993	0.093720
3537.19126	0.093860
3535.26258	0.093872
3533.33391	0.093867
3531.40523	0.093986
3529.47655	0.094092
3527.54788	0.094044
3525.61920	0.093989
3523.69053	0.094107
3521.76185	0.094304
3519.83318	0.094372
3517.90450	0.094375
3515.97582	0.094484
3514.04715	0.094591
3512.11847	0.094562
3510.18980	0.094541
3508.26112	0.094648
3506.33245	0.094744
3504.40377	0.094709
3502.47509	0.094671
3500.54642	0.094750
3498.61774	0.094841
3496.68907	0.094835
3494.76039	0.094829
3492.83172	0.094916
3490.90304	0.094971
3488.97436	0.094912
3487.04569	0.094893
3485.11701	0.095013
3483.18834	0.095120
3481.25966	0.095111
3479.33099	0.095139
3477.40231	0.095305
3475.47363	0.095494
3473.54496	0.095607
3471.61628	0.095709
3469.68761	0.095889
3467.75893	0.096073
3465.83026	0.096177
3463.90158	0.096292
3461.97290	0.096501
3460.04423	0.096717
3458.11555	0.096837
3456.18688	0.096942
3454.25820	0.097145
3452.32953	0.097340
3450.40085	0.097371
3448.47217	0.097382
3446.54350	0.097594
3444.61482	0.097878
3442.68615	0.098041
3440.75747	0.098201
3438.82880	0.098477
3436.90012	0.098767
3434.97144	0.099020
3433.04277	0.099331
3431.11409	0.099726
3429.18542	0.100076
3427.25674	0.100333
3425.32807	0.100620
3423.39939	0.100994
3421.47071	0.101334
3419.54204	0.101567
3417.61336	0.101825
3415.68469	0.102164
3413.75601	0.102430
3411.82734	0.102583
3409.89866	0.102785
3407.96998	0.103092
3406.04131	0.103354
3404.11263	0.103499
3402.18396	0.103662
3400.25528	0.103917
3398.32661	0.104141
3396.39793	0.104270
3394.46925	0.104458
3392.54058	0.104796
3390.61190	0.105124
3388.68323	0.105317
3386.75455	0.105488
3384.82588	0.105732
3382.89720	0.105948
3380.96852	0.106090
3379.03985	0.106294
3377.11117	0.106592
3375.18250	0.106809
3373.25382	0.106901
3371.32515	0.107055
3369.39647	0.107331
3367.46779	0.107554
3365.53912	0.107674
3363.61044	0.107845
3361.68177	0.108088
3359.75309	0.108254
3357.82442	0.108347
3355.89574	0.108535
3353.96706	0.108842
3352.03839	0.109084
3350.10971	0.109186
3348.18104	0.109328
3346.25236	0.109591
3344.32369	0.109784
3342.39501	0.109852
3340.46633	0.110013
3338.53766	0.110339
3336.60898	0.110599
3334.68031	0.110703
3332.75163	0.110863
3330.82296	0.111126
3328.89428	0.111323
3326.96560	0.111471
3325.03693	0.111690
3323.10825	0.111943
3321.17958	0.112125
3319.25090	0.112261
3317.32223	0.112489
3315.39355	0.112799
3313.46487	0.113000
3311.53620	0.113097
3309.60752	0.113304
3307.67885	0.113605
3305.75017	0.113785
3303.82150	0.113872
3301.89282	0.114094
3299.96414	0.114446
3298.03547	0.114688
3296.10679	0.114808
3294.17812	0.115032
3292.24944	0.115365
3290.32077	0.115597
3288.39209	0.115722
3286.46341	0.115937
3284.53474	0.116251
3282.60606	0.116459
3280.67739	0.116547
3278.74871	0.116723
3276.82004	0.117036
3274.89136	0.117288
3272.96268	0.117425
3271.03401	0.117645
3269.10533	0.117962
3267.17666	0.118154
3265.24798	0.118241
3263.31931	0.118464
3261.39063	0.118803
3259.46195	0.119019
3257.53328	0.119130
3255.60460	0.119356
3253.67593	0.119684
3251.74725	0.119905
3249.81858	0.120029
3247.88990	0.120268
3245.96122	0.120598
3244.03255	0.120799
3242.10387	0.120906
3240.17520	0.121129
3238.24652	0.121409
3236.31785	0.121584
3234.38917	0.121742
3232.46049	0.122009
3230.53182	0.122299
3228.60314	0.122476
3226.67447	0.122604
3224.74579	0.122837
3222.81712	0.123110
3220.88844	0.123255
3218.95976	0.123363
3217.03109	0.123639
3215.10241	0.123993
3213.17374	0.124189
3211.24506	0.124274
3209.31639	0.124500
3207.38771	0.124849
3205.45903	0.125075
3203.53036	0.125196
3201.60168	0.125441
3199.67301	0.125780
3197.74433	0.126003
3195.81566	0.126151
3193.88698	0.126422
3191.95830	0.126737
3190.02963	0.126921
3188.10095	0.127080
3186.17228	0.127385
3184.24360	0.127745
3182.31493	0.127963
3180.38625	0.128088
3178.45757	0.128319
3176.52890	0.128623
3174.60022	0.128827
3172.67155	0.128986
3170.74287	0.129254
3168.81420	0.129542
3166.88552	0.129694
3164.95684	0.129827
3163.02817	0.130114
3161.09949	0.130423
3159.17082	0.130585
3157.24214	0.130729
3155.31347	0.131020
3153.38479	0.131332
3151.45611	0.131485
3149.52744	0.131615
3147.59876	0.131935
3145.67009	0.132309
3143.74141	0.132498
3141.81274	0.132615
3139.88406	0.132875
3137.95538	0.133170
3136.02671	0.133314
3134.09803	0.133438
3132.16936	0.133733
3130.24068	0.134062
3128.31201	0.134227
3126.38333	0.134355
3124.45465	0.134645
3122.52598	0.134974
3120.59730	0.135139
3118.66863	0.135281
3116.73995	0.135598
3114.81128	0.135931
3112.88260	0.136086
3110.95392	0.136203
3109.02525	0.136472
3107.09657	0.136781
3105.16790	0.136956
3103.23922	0.137099
3101.31055	0.137371
3099.38187	0.137664
3097.45319	0.137846
3095.52452	0.138045
3093.59584	0.138358
3091.66717	0.138643
3089.73849	0.138798
3087.80982	0.138952
3085.88114	0.139235
3083.95246	0.139533
3082.02379	0.139703
3080.09511	0.139878
3078.16644	0.140179
3076.23776	0.140437
3074.30909	0.140553
3072.38041	0.140726
3070.45173	0.141061
3068.52306	0.141354
3066.59438	0.141488
3064.66571	0.141660
3062.73703	0.141976
3060.80836	0.142234
3058.87968	0.142345
3056.95100	0.142539
3055.02233	0.142923
3053.09365	0.143251
3051.16498	0.143374
3049.23630	0.143514
3047.30763	0.143839
3045.37895	0.144151
3043.45027	0.144275
3041.52160	0.144417
3039.59292	0.144764
3037.66425	0.145101
3035.73557	0.145226
3033.80690	0.145327
3031.87822	0.145581
3029.94954	0.145841
3028.02087	0.146003
3026.09219	0.146243
3024.16352	0.146621
3022.23484	0.146899
3020.30617	0.146992
3018.37749	0.147163
3016.44881	0.147500
3014.52014	0.147747
3012.59146	0.147842
3010.66279	0.148052
3008.73411	0.148419
3006.80544	0.148665
3004.87676	0.148735
3002.94808	0.148916
3001.01941	0.149292
2999.09073	0.149595
2997.16206	0.149727
2995.23338	0.149904
2993.30471	0.150212
2991.37603	0.150447
2989.44735	0.150538
2987.51868	0.150698
2985.59000	0.150981
2983.66133	0.151148
2981.73265	0.151146
2979.80398	0.151219
2977.87530	0.151418
2975.94662	0.151492
2974.01795	0.151388
2972.08927	0.151364
2970.16060	0.151467
2968.23192	0.151427
2966.30325	0.151232
2964.37457	0.151220
2962.44589	0.151488
2960.51722	0.151745
2958.58854	0.151879
2956.65987	0.152148
2954.73119	0.152599
2952.80252	0.152924
2950.87384	0.153079
2948.94516	0.153327
2947.01649	0.153664
2945.08781	0.153828
2943.15914	0.153796
2941.23046	0.153817
2939.30179	0.153951
2937.37311	0.153972
2935.44443	0.153802
2933.51576	0.153662
2931.58708	0.153616
2929.65841	0.153483
2927.72973	0.153299
2925.80106	0.153283
2923.87238	0.153393
2921.94370	0.153425
2920.01503	0.153437
2918.08635	0.153707
2916.15768	0.154314
2914.22900	0.155111
2912.30033	0.155955
2910.37165	0.156785
2908.44297	0.157532
2906.51430	0.158051
2904.58562	0.158385
2902.65695	0.158790
2900.72827	0.159270
2898.79960	0.159591
2896.87092	0.159806
2894.94224	0.160162
2893.01357	0.160608
2891.08489	0.160933
2889.15622	0.161174
2887.22754	0.161489
2885.29887	0.161831
2883.37019	0.162055
2881.44151	0.162241
2879.51284	0.162556
2877.58416	0.162891
2875.65549	0.163031
2873.72681	0.163079
2871.79814	0.163297
2869.86946	0.163652
2867.94078	0.163875
2866.01211	0.163949
2864.08343	0.164101
2862.15476	0.164291
2860.22608	0.164281
2858.29741	0.164127
2856.36873	0.164069
2854.44005	0.164098
2852.51138	0.164011
2850.58270	0.163992
2848.65403	0.164498
2846.72535	0.165451
2844.79668	0.166361
2842.86800	0.167056
2840.93932	0.167697
2839.01065	0.168302
2837.08197	0.168705
2835.15330	0.168984
2833.22462	0.169377
2831.29595	0.169824
2829.36727	0.170102
2827.43859	0.170287
2825.50992	0.170599
2823.58124	0.170966
2821.65257	0.171184
2819.72389	0.171339
2817.79522	0.171656
2815.86654	0.172068
2813.93786	0.172340
2812.00919	0.172528
2810.08051	0.172838
2808.15184	0.173190
2806.22316	0.173376
2804.29449	0.173511
2802.36581	0.173833
2800.43713	0.174232
2798.50846	0.174483
2796.57978	0.174675
2794.65111	0.175007
2792.72243	0.175370
2790.79376	0.175549
2788.86508	0.175659
2786.93640	0.175932
2785.00773	0.176292
2783.07905	0.176543
2781.15038	0.176769
2779.22170	0.177127
2777.29303	0.177491
2775.36435	0.177682
2773.43567	0.177839
2771.50700	0.178184
2769.57832	0.178570
2767.64965	0.178744
2765.72097	0.178838
2763.79230	0.179111
2761.86362	0.179461
2759.93494	0.179654
2758.00627	0.179790
2756.07759	0.180081
2754.14892	0.180419
2752.22024	0.180612
2750.29157	0.180769
2748.36289	0.181072
2746.43421	0.181392
2744.50554	0.181549
2742.57686	0.181717
2740.64819	0.182073
2738.71951	0.182412
2736.79084	0.182539
2734.86216	0.182658
2732.93348	0.182991
2731.00481	0.183377
2729.07613	0.183614
2727.14746	0.183823
2725.21878	0.184158
2723.29011	0.184483
2721.36143	0.184641
2719.43275	0.184780
2717.50408	0.185078
2715.57540	0.185380
2713.64673	0.185538
2711.71805	0.185718
2709.78938	0.186049
2707.86070	0.186349
2705.93202	0.186474
2704.00335	0.186618
2702.07467	0.186949
2700.14600	0.187283
2698.21732	0.187448
2696.28865	0.187608
2694.35997	0.187928
2692.43129	0.188243
2690.50262	0.188394
2688.57394	0.188581
2686.64527	0.188956
2684.71659	0.189280
2682.78792	0.189391
2680.85924	0.189500
2678.93056	0.189796
2677.00189	0.190141
2675.07321	0.190333
2673.14454	0.190496
2671.21586	0.190835
2669.28719	0.191182
2667.35851	0.191323
2665.42983	0.191438
2663.50116	0.191760
2661.57248	0.192139
2659.64381	0.192348
2657.71513	0.192541
2655.78646	0.192915
2653.85778	0.193256
2651.92910	0.193390
2650.00043	0.193543
2648.07175	0.193873
2646.14308	0.194186
2644.21440	0.194363
2642.28573	0.194589
2640.35705	0.194966
2638.42837	0.195283
2636.49970	0.195429
2634.57102	0.195626
2632.64235	0.195990
2630.71367	0.196320
2628.78500	0.196500
2626.85632	0.196733
2624.92764	0.197136
2622.99897	0.197481
2621.07029	0.197649
2619.14162	0.197857
2617.21294	0.198242
2615.28427	0.198622
2613.35559	0.198852
2611.42691	0.199090
2609.49824	0.199453
2607.56956	0.199757
2605.64089	0.199900
2603.71221	0.200092
2601.78354	0.200474
2599.85486	0.200818
2597.92618	0.200956
2595.99751	0.201135
2594.06883	0.201540
2592.14016	0.201932
2590.21148	0.202132
2588.28281	0.202338
2586.35413	0.202675
2584.42545	0.202958
2582.49678	0.203105
2580.56810	0.203329
2578.63943	0.203704
2576.71075	0.204020
2574.78208	0.204228
2572.85340	0.204503
2570.92472	0.204866
2568.99605	0.205133
2567.06737	0.205243
2565.13870	0.205403
2563.21002	0.205735
2561.28135	0.206025
2559.35267	0.206157
2557.42399	0.206353
2555.49532	0.206683
2553.56664	0.206920
2551.63797	0.207043
2549.70929	0.207314
2547.78062	0.207763
2545.85194	0.208102
2543.92326	0.208256
2541.99459	0.208462
2540.06591	0.208786
2538.13724	0.209046
2536.20856	0.209192
2534.27989	0.209394
2532.35121	0.209712
2530.42253	0.209982
2528.49386	0.210128
2526.56518	0.210358
2524.63651	0.210781
2522.70783	0.211145
2520.77916	0.211334
2518.85048	0.211578
2516.92181	0.211926
2514.99313	0.212163
2513.06445	0.212294
2511.13578	0.212564
2509.20710	0.212969
2507.27843	0.213255
2505.34975	0.213411
2503.42108	0.213680
2501.49240	0.214099
2499.56372	0.214420
2497.63505	0.214599
2495.70637	0.214870
2493.77770	0.215267
2491.84902	0.215561
2489.92035	0.215742
2487.99167	0.216051
2486.06299	0.216474
2484.13432	0.216759
2482.20564	0.216932
2480.27697	0.217228
2478.34829	0.217631
2476.41962	0.217915
2474.49094	0.218088
2472.56226	0.218391
2470.63359	0.218804
2468.70491	0.219073
2466.77624	0.219222
2464.84756	0.219515
2462.91889	0.219945
2460.99021	0.220220
2459.06153	0.220318
2457.13286	0.220546
2455.20418	0.220937
2453.27551	0.221219
2451.34683	0.221403
2449.41816	0.221742
2447.48948	0.222167
2445.56080	0.222420
2443.63213	0.222576
2441.70345	0.222888
2439.77478	0.223310
2437.84610	0.223587
2435.91743	0.223714
2433.98875	0.223962
2432.06007	0.224335
2430.13140	0.224587
2428.20272	0.224771
2426.27405	0.225101
2424.34537	0.225480
2422.41670	0.225680
2420.48802	0.225799
2418.55934	0.226107
2416.63067	0.226531
2414.70199	0.226781
2412.77332	0.226909
2410.84464	0.227194
2408.91597	0.227573
2406.98729	0.227806
2405.05861	0.227991
2403.12994	0.228340
2401.20126	0.228748
2399.27259	0.229002
2397.34391	0.229159
2395.41524	0.229404
2393.48656	0.229709
2391.55788	0.229926
2389.62921	0.230130
2387.70053	0.230483
2385.77186	0.230868
2383.84318	0.231052
2381.91451	0.231082
2379.98583	0.231153
2378.05715	0.231247
2376.12848	0.231219
2374.19980	0.231141
2372.27113	0.231207
2370.34245	0.231351
2368.41378	0.231370
2366.48510	0.231391
2364.55642	0.231669
2362.62775	0.232060
2360.69907	0.232298
2358.77040	0.232494
2356.84172	0.232873
2354.91305	0.233382
2352.98437	0.233881
2351.05569	0.234413
2349.12702	0.234926
2347.19834	0.235139
2345.26967	0.235014
2343.34099	0.234953
2341.41232	0.235266
2339.48364	0.235748
2337.55496	0.236068
2335.62629	0.236285
2333.69761	0.236595
2331.76894	0.236954
2329.84026	0.237225
2327.91159	0.237446
2325.98291	0.237760
2324.05423	0.238151
2322.12556	0.238501
2320.19688	0.238842
2318.26821	0.239257
2316.33953	0.239667
2314.41086	0.239972
2312.48218	0.240281
2310.55350	0.240726
2308.62483	0.241212
2306.69615	0.241561
2304.76748	0.241834
2302.83880	0.242229
2300.91013	0.242655
2298.98145	0.242909
2297.05277	0.243090
2295.12410	0.243384
2293.19542	0.243725
2291.26675	0.243985
2289.33807	0.244260
2287.40940	0.244659
2285.48072	0.245026
2283.55204	0.245236
2281.62337	0.245432
2279.69469	0.245724
2277.76602	0.245996
2275.83734	0.246176
2273.90867	0.246413
2271.97999	0.246813
2270.05131	0.247185
2268.12264	0.247354
2266.19396	0.247502
2264.26529	0.247818
2262.33661	0.248165
2260.40794	0.248403
2258.47926	0.248611
2256.55058	0.248884
2254.62191	0.249184
2252.69323	0.249436
2250.76456	0.249673
2248.83588	0.249974
2246.90721	0.250301
2244.97853	0.250544
2243.04985	0.250762
2241.12118	0.251090
2239.19250	0.251467
2237.26383	0.251743
2235.33515	0.251969
2233.40648	0.252228
2231.47780	0.252434
2229.54912	0.252571
2227.62045	0.252785
2225.69177	0.253142
2223.76310	0.253504
2221.83442	0.253732
2219.90575	0.253929
2217.97707	0.254247
2216.04839	0.254571
2214.11972	0.254757
2212.19104	0.254953
2210.26237	0.255292
2208.33369	0.255630
2206.40502	0.255835
2204.47634	0.256039
2202.54766	0.256381
2200.61899	0.256726
2198.69031	0.256888
2196.76164	0.256978
2194.83296	0.257224
2192.90429	0.257552
2190.97561	0.257768
2189.04693	0.257965
2187.11826	0.258277
2185.18958	0.258586
2183.26091	0.258799
2181.33223	0.259032
2179.40356	0.259337
2177.47488	0.259616
2175.54620	0.259831
2173.61753	0.260068
2171.68885	0.260388
2169.76018	0.260696
2167.83150	0.260907
2165.90283	0.261143
2163.97415	0.261451
2162.04547	0.261687
2160.11680	0.261829
2158.18812	0.262024
2156.25945	0.262339
2154.33077	0.262682
2152.40210	0.262944
2150.47342	0.263210
2148.54474	0.263591
2146.61607	0.263927
2144.68739	0.264086
2142.75872	0.264253
2140.83004	0.264587
2138.90137	0.264956
2136.97269	0.265198
2135.04401	0.265407
2133.11534	0.265687
2131.18666	0.265941
2129.25799	0.266152
2127.32931	0.266415
2125.40064	0.266722
2123.47196	0.266954
2121.54328	0.267103
2119.61461	0.267343
2117.68593	0.267726
2115.75726	0.268071
2113.82858	0.268282
2111.89991	0.268486
2109.97123	0.268781
2108.04255	0.269069
2106.11388	0.269265
2104.18520	0.269462
2102.25653	0.269748
2100.32785	0.270016
2098.39918	0.270215
2096.47050	0.270457
2094.54182	0.270766
2092.61315	0.271043
2090.68447	0.271276
2088.75580	0.271533
2086.82712	0.271821
2084.89845	0.272075
2082.96977	0.272266
2081.04109	0.272483
2079.11242	0.272779
2077.18374	0.273038
2075.25507	0.273240
2073.32639	0.273538
2071.39772	0.273890
2069.46904	0.274124
2067.54036	0.274284
2065.61169	0.274518
2063.68301	0.274819
2061.75434	0.275049
2059.82566	0.275193
2057.89699	0.275423
2055.96831	0.275790
2054.03963	0.276114
2052.11096	0.276287
2050.18228	0.276463
2048.25361	0.276798
2046.32493	0.277156
2044.39626	0.277369
2042.46758	0.277546
2040.53890	0.277816
2038.61023	0.278085
2036.68155	0.278280
2034.75288	0.278525
2032.82420	0.278843
2030.89553	0.279092
2028.96685	0.279253
2027.03817	0.279473
2025.10950	0.279793
2023.18082	0.280059
2021.25215	0.280207
2019.32347	0.280377
2017.39480	0.280682
2015.46612	0.281045
2013.53744	0.281346
2011.60877	0.281599
2009.68009	0.281831
2007.75142	0.282014
2005.82274	0.282245
2003.89407	0.282621
2001.96539	0.283011
2000.03671	0.283233
1998.10804	0.283341
1996.17936	0.283551
1994.25069	0.283858
1992.32201	0.284062
1990.39334	0.284215
1988.46466	0.284497
1986.53598	0.284862
1984.60731	0.285128
1982.67863	0.285265
1980.74996	0.285465
1978.82128	0.285767
1976.89261	0.285977
1974.96393	0.286112
1973.03525	0.286379
1971.10658	0.286710
1969.17790	0.286842
1967.24923	0.286886
1965.32055	0.287158
1963.39188	0.287516
1961.46320	0.287686
1959.53452	0.287836
1957.60585	0.288173
1955.67717	0.288562
1953.74850	0.288789
1951.81982	0.288908
1949.89115	0.289145
1947.96247	0.289442
1946.03379	0.289576
1944.10512	0.289646
1942.17644	0.289922
1940.24777	0.290343
1938.31909	0.290652
1936.39042	0.290871
1934.46174	0.291191
1932.53306	0.291552
1930.60439	0.291766
1928.67571	0.291913
1926.74704	0.292175
1924.81836	0.292435
1922.88969	0.292516
1920.96101	0.292399
1919.03233	0.292321
1917.10366	0.292692
1915.17498	0.293346
1913.24631	0.293761
1911.31763	0.293965
1909.38896	0.294213
1907.46028	0.294504
1905.53160	0.294773
1903.60293	0.295070
1901.67425	0.295388
1899.74558	0.295566
1897.81690	0.295572
1895.88823	0.295671
1893.95955	0.296002
1892.03087	0.296285
1890.10220	0.296417
1888.17352	0.296682
1886.24485	0.297068
1884.31617	0.297334
1882.38750	0.297536
1880.45882	0.297847
1878.53014	0.298220
1876.60147	0.298479
1874.67279	0.298619
1872.74412	0.298714
1870.81544	0.298681
1868.88677	0.298640
1866.95809	0.298979
1865.02941	0.299628
1863.10074	0.300142
1861.17206	0.300376
1859.24339	0.300515
1857.31471	0.300760
1855.38604	0.301081
1853.45736	0.301351
1851.52868	0.301562
1849.60001	0.301739
1847.67133	0.301756
1845.74266	0.301548
1843.81398	0.301651
1841.88531	0.302357
1839.95663	0.303012
1838.02795	0.303256
1836.09928	0.303471
1834.17060	0.303735
1832.24193	0.303657
1830.31325	0.303433
1828.38458	0.303621
1826.45590	0.304101
1824.52722	0.304657
1822.59855	0.305221
1820.66987	0.305555
1818.74120	0.305752
1816.81252	0.306012
1814.88385	0.306169
1812.95517	0.306104
1811.02649	0.306140
1809.09782	0.306567
1807.16914	0.307043
1805.24047	0.307158
1803.31179	0.307083
1801.38312	0.307158
1799.45444	0.307429
1797.52576	0.307751
1795.59709	0.307965
1793.66841	0.307966
1791.73974	0.307989
1789.81106	0.308344
1787.88239	0.308789
1785.95371	0.309014
1784.02503	0.309086
1782.09636	0.309121
1780.16768	0.309292
1778.23901	0.309586
1776.31033	0.309595
1774.38166	0.309261
1772.45298	0.309055
1770.52430	0.309094
1768.59563	0.309290
1766.66695	0.309879
1764.73828	0.310538
1762.80960	0.310779
1760.88093	0.310859
1758.95225	0.310846
1757.02357	0.310785
1755.09490	0.310906
1753.16622	0.310825
1751.23755	0.310383
1749.30887	0.310169
1747.38020	0.310394
1745.45152	0.310664
1743.52284	0.310778
1741.59417	0.310798
1739.66549	0.310770
1737.73682	0.310449
1735.80814	0.309645
1733.87947	0.309273
1731.95079	0.309955
1730.02211	0.310904
1728.09344	0.311669
1726.16476	0.312268
1724.23609	0.312585
1722.30741	0.312484
1720.37874	0.311839
1718.45006	0.311278
1716.52138	0.311529
1714.59271	0.312339
1712.66403	0.313180
1710.73536	0.313693
1708.80668	0.313682
1706.87801	0.313483
1704.94933	0.313513
1703.02065	0.313322
1701.09198	0.312728
1699.16330	0.312365
1697.23463	0.312247
1695.30595	0.312634
1693.37728	0.313777
1691.44860	0.314540
1689.51992	0.314500
1687.59125	0.314034
1685.66257	0.313191
1683.73390	0.312809
1681.80522	0.313458
1679.87655	0.314313
1677.94787	0.314539
1676.01919	0.314314
1674.09052	0.314234
1672.16184	0.314167
1670.23317	0.313965
1668.30449	0.314268
1666.37582	0.315014
1664.44714	0.315404
1662.51846	0.315471
1660.58979	0.315625
1658.66111	0.315694
1656.73244	0.314922
1654.80376	0.313280
1652.87509	0.312675
1650.94641	0.313841
1649.01773	0.314704
1647.08906	0.314610
1645.16038	0.314929
1643.23171	0.315747
1641.30303	0.316181
1639.37436	0.315939
1637.44568	0.315435
1635.51700	0.315434
1633.58833	0.316090
1631.65965	0.316644
1629.73098	0.316649
1627.80230	0.316408
1625.87363	0.315938
1623.94495	0.315150
1622.01627	0.314563
1620.08760	0.314500
1618.15892	0.314952
1616.23025	0.315973
1614.30157	0.317179
1612.37290	0.318063
1610.44422	0.318613
1608.51554	0.319059
1606.58687	0.319485
1604.65819	0.319808
1602.72952	0.320108
1600.80084	0.320502
1598.87217	0.320849
1596.94349	0.321071
1595.01481	0.321289
1593.08614	0.321551
1591.15746	0.321849
1589.22879	0.322166
1587.30011	0.322452
1585.37144	0.322687
1583.44276	0.322871
1581.51408	0.323021
1579.58541	0.322937
1577.65673	0.322506
1575.72806	0.322493
1573.79938	0.323209
1571.87071	0.323618
1569.94203	0.323526
1568.01335	0.323718
1566.08468	0.324138
1564.15600	0.324421
1562.22733	0.324189
1560.29865	0.323180
1558.36998	0.322568
1556.44130	0.323410
1554.51262	0.324743
1552.58395	0.325398
1550.65527	0.325552
1548.72660	0.325778
1546.79792	0.325799
1544.86925	0.325092
1542.94057	0.324201
1541.01189	0.324147
1539.08322	0.325079
1537.15454	0.326091
1535.22587	0.326424
1533.29719	0.326606
1531.36852	0.327157
1529.43984	0.327478
1527.51116	0.327385
1525.58249	0.327260
1523.65381	0.326988
1521.72514	0.326824
1519.79646	0.327182
1517.86779	0.327598
1515.93911	0.327792
1514.01043	0.328032
1512.08176	0.328155
1510.15308	0.327650
1508.22441	0.326842
1506.29573	0.327016
1504.36706	0.328255
1502.43838	0.329124
1500.50970	0.328988
1498.58103	0.328378
1496.65235	0.328129
1494.72368	0.328558
1492.79500	0.328890
1490.86633	0.328641
1488.93765	0.328394
1487.00897	0.328514
1485.08030	0.328671
1483.15162	0.328597
1481.22295	0.328404
1479.29427	0.327996
1477.36560	0.327138
1475.43692	0.326144
1473.50824	0.325531
1471.57957	0.325445
1469.65089	0.325507
1467.72222	0.325099
1465.79354	0.324398
1463.86487	0.324175
1461.93619	0.324136
1460.00751	0.323306
1458.07884	0.322179
1456.15016	0.322199
1454.22149	0.323198
1452.29281	0.323931
1450.36414	0.324114
1448.43546	0.324158
1446.50678	0.324358
1444.57811	0.324694
1442.64943	0.325015
1440.72076	0.325211
1438.79208	0.325091
1436.86341	0.324963
1434.93473	0.325368
1433.00605	0.325984
1431.07738	0.326310
1429.14870	0.326549
1427.22003	0.326815
1425.29135	0.326908
1423.36268	0.326701
1421.43400	0.325987
1419.50532	0.325403
1417.57665	0.325966
1415.64797	0.327011
1413.71930	0.327454
1411.79062	0.327502
1409.86195	0.327599
1407.93327	0.327642
1406.00459	0.327555
1404.07592	0.327572
1402.14724	0.327599
1400.21857	0.327415
1398.28989	0.327163
1396.36122	0.326999
1394.43254	0.327049
1392.50386	0.327197
1390.57519	0.327044
1388.64651	0.326607
1386.71784	0.326241
1384.78916	0.326107
1382.86049	0.326222
1380.93181	0.326465
1379.00313	0.326533
1377.07446	0.326297
1375.14578	0.326047
1373.21711	0.326147
1371.28843	0.326441
1369.35976	0.326553
1367.43108	0.326538
1365.50240	0.326513
1363.57373	0.326387
1361.64505	0.326320
1359.71638	0.326529
1357.78770	0.326816
1355.85903	0.327003
1353.93035	0.327193
1352.00167	0.327410
1350.07300	0.327646
1348.14432	0.327940
1346.21565	0.328190
1344.28697	0.328243
1342.35830	0.328052
1340.42962	0.327776
1338.50094	0.327709
1336.57227	0.327885
1334.64359	0.328042
1332.71492	0.328010
1330.78624	0.327805
1328.85757	0.327570
1326.92889	0.327397
1325.00021	0.327209
1323.07154	0.326923
1321.14286	0.326572
1319.21419	0.326308
1317.28551	0.326174
1315.35684	0.325991
1313.42816	0.325635
1311.49948	0.325161
1309.57081	0.324687
1307.64213	0.324277
1305.71346	0.323877
1303.78478	0.323468
1301.85611	0.323158
1299.92743	0.322912
1297.99875	0.322596
1296.07008	0.322275
1294.14140	0.322051
1292.21273	0.321863
1290.28405	0.321618
1288.35538	0.321281
1286.42670	0.320861
1284.49802	0.320431
1282.56935	0.320024
1280.64067	0.319579
1278.71200	0.319067
1276.78332	0.318489
1274.85465	0.317805
1272.92597	0.316939
1270.99729	0.315809
1269.06862	0.314315
1267.13994	0.312572
1265.21127	0.311027
1263.28259	0.310014
1261.35392	0.309532
1259.42524	0.309423
1257.49656	0.309504
1255.56789	0.309593
1253.63921	0.309502
1251.71054	0.309169
1249.78186	0.308610
1247.85319	0.307871
1245.92451	0.307068
1243.99583	0.306208
1242.06716	0.305246
1240.13848	0.304230
1238.20981	0.303204
1236.28113	0.302192
1234.35246	0.301160
1232.42378	0.300077
1230.49510	0.299021
1228.56643	0.298089
1226.63775	0.297226
1224.70908	0.296314
1222.78040	0.295391
1220.85173	0.294553
1218.92305	0.293744
1216.99437	0.292848
1215.06570	0.291870
1213.13702	0.290895
1211.20835	0.289966
1209.27967	0.289039
1207.35100	0.288049
1205.42232	0.286989
1203.49364	0.285902
1201.56497	0.284834
1199.63629	0.283764
1197.70762	0.282662
1195.77894	0.281614
1193.85027	0.280633
1191.92159	0.279581
1189.99291	0.278414
1188.06424	0.277214
1186.13556	0.275972
1184.20689	0.274577
1182.27821	0.273099
1180.34954	0.271694
1178.42086	0.270333
1176.49218	0.268937
1174.56351	0.267481
1172.63483	0.266003
1170.70616	0.264544
1168.77748	0.263065
1166.84881	0.261541
1164.92013	0.260005
1162.99145	0.258501
1161.06278	0.257129
1159.13410	0.255870
1157.20543	0.254561
1155.27675	0.253157
1153.34808	0.251755
1151.41940	0.250449
1149.49072	0.249230
1147.56205	0.247984
1145.63337	0.246632
1143.70470	0.245179
1141.77602	0.243683
1139.84735	0.242125
1137.91867	0.240403
1135.98999	0.238458
1134.06132	0.236300
1132.13264	0.233923
1130.20397	0.231181
1128.27529	0.227961
1126.34662	0.224377
1124.41794	0.220674
1122.48926	0.217017
1120.56059	0.213399
1118.63191	0.209862
1116.70324	0.206570
1114.77456	0.203663
1112.84589	0.201225
1110.91721	0.199285
1108.98853	0.197803
1107.05986	0.196753
1105.13118	0.196140
1103.20251	0.195926
1101.27383	0.196090
1099.34516	0.196642
1097.41648	0.197502
1095.48780	0.198608
1093.55913	0.199944
1091.63045	0.201389
1089.70178	0.202740
1087.77310	0.203854
1085.84443	0.204739
1083.91575	0.205499
1081.98707	0.206151
1080.05840	0.206626
1078.12972	0.206954
1076.20105	0.207203
1074.27237	0.207382
1072.34370	0.207561
1070.41502	0.207820
1068.48634	0.208144
1066.55767	0.208493
1064.62899	0.208854
1062.70032	0.209244
1060.77164	0.209687
1058.84297	0.210145
1056.91429	0.210574
1054.98561	0.211007
1053.05694	0.211439
1051.12826	0.211884
1049.19959	0.212437
1047.27091	0.213099
1045.34224	0.213825
1043.41356	0.214588
1041.48488	0.215282
1039.55621	0.215908
1037.62753	0.216594
1035.69886	0.217312
1033.77018	0.217958
1031.84151	0.218505
1029.91283	0.219030
1027.98415	0.219619
1026.05548	0.220231
1024.12680	0.220830
1022.19813	0.221470
1020.26945	0.222232
1018.34078	0.223132
1016.41210	0.224052
1014.48342	0.224935
1012.55475	0.225879
1010.62607	0.226942
1008.69740	0.228033
1006.76872	0.229074
1004.84005	0.230076
1002.91137	0.230956
1000.98269	0.231677
999.05402	0.232339
997.12534	0.232934
995.19667	0.233383
993.26799	0.233738
991.33932	0.234037
989.41064	0.234192
987.48196	0.234234
985.55329	0.234293
983.62461	0.234416
981.69594	0.234537
979.76726	0.234562
977.83859	0.234523
975.90991	0.234482
973.98123	0.234453
972.05256	0.234397
970.12388	0.234228
968.19521	0.233969
966.26653	0.233705
964.33786	0.233419
962.40918	0.233105
960.48050	0.232857
958.55183	0.232656
956.62315	0.232366
954.69448	0.232033
952.76580	0.231801
950.83713	0.231574
948.90845	0.231193
946.97977	0.230701
945.05110	0.230172
943.12242	0.229565
941.19375	0.228834
939.26507	0.228036
937.33640	0.227246
935.40772	0.226452
933.47904	0.225628
931.55037	0.224705
929.62169	0.223639
927.69302	0.222518
925.76434	0.221376
923.83567	0.220179
921.90699	0.218977
919.97831	0.217807
918.04964	0.216627
916.12096	0.215376
914.19229	0.213990
912.26361	0.212558
910.33494	0.211237
908.40626	0.209991
906.47758	0.208776
904.54891	0.207605
902.62023	0.206446
900.69156	0.205379
898.76288	0.204520
896.83421	0.203706
894.90553	0.202688
892.97685	0.201577
891.04818	0.200651
889.11950	0.199936
887.19083	0.199283
885.26215	0.198617
883.33348	0.197963
881.40480	0.197342
879.47612	0.196769
877.54745	0.196251
875.61877	0.195742
873.69010	0.195208
871.76142	0.194726
869.83275	0.194327
867.90407	0.193901
865.97539	0.193453
864.04672	0.193122
862.11804	0.192942
860.18937	0.192866
858.26069	0.192833
856.33202	0.192760
854.40334	0.192546
852.47466	0.192169
850.54599	0.191691
848.61731	0.191115
846.68864	0.190506
844.75996	0.190057
842.83129	0.189825
840.90261	0.189663
838.97394	0.189337
837.04526	0.188691
835.11658	0.187747
833.18791	0.186572
831.25923	0.185148
829.33056	0.183565
827.40188	0.181997
825.47321	0.180467
823.54453	0.179044
821.61585	0.177879
819.68718	0.176962
817.75850	0.176246
815.82983	0.175692
813.90115	0.175224
811.97248	0.174807
810.04380	0.174423
808.11512	0.174114
806.18645	0.173960
804.25777	0.173925
802.32910	0.173860
800.40042	0.173499
798.47175	0.172722
796.54307	0.171820
794.61439	0.171050
792.68572	0.170492
790.75704	0.170208
788.82837	0.170069
786.89969	0.169958
784.97102	0.169852
783.04234	0.169616
781.11366	0.169173
779.18499	0.168690
777.25631	0.168314
775.32764	0.168001
773.39896	0.167686
771.47029	0.167275
769.54161	0.166733
767.61293	0.166194
765.68426	0.165696
763.75558	0.165170
761.82691	0.164577
759.89823	0.163899
757.96956	0.163164
756.04088	0.162385
754.11220	0.161476
752.18353	0.160416
750.25485	0.159316
748.32618	0.158212
746.39750	0.157059
744.46883	0.155823
742.54015	0.154460
740.61147	0.153166
738.68280	0.152389
736.75412	0.152177
734.82545	0.152214
732.89677	0.152417
730.96810	0.152654
729.03942	0.152727
727.11074	0.152788
725.18207	0.152993
723.25339	0.153271
721.32472	0.153618
719.39604	0.154102
717.46737	0.154719
715.53869	0.155509
713.61001	0.156391
711.68134	0.157063
709.75266	0.157441
707.82399	0.157627
705.89531	0.157643
703.96664	0.157557
702.03796	0.157346
700.10928	0.156818
698.18061	0.156001
696.25193	0.155175
694.32326	0.154415
692.39458	0.153693
690.46591	0.153035
688.53723	0.152328
686.60855	0.151591
684.67988	0.151005
682.75120	0.150454
680.82253	0.149697
678.89385	0.148839
676.96518	0.148041
675.03650	0.147138
673.10782	0.145991
671.17915	0.144626
669.25047	0.143187
667.32180	0.141955
665.39312	0.140917
663.46445	0.139779
661.53577	0.138496
659.60709	0.137240
657.67842	0.136063
655.74974	0.134922
653.82107	0.133798
651.89239	0.132680
649.96372	0.131543
648.03504	0.130350
646.10636	0.128996
644.17769	0.127383
642.24901	0.125654
640.32034	0.123987
638.39166	0.122319
636.46299	0.120562
634.53431	0.118682
632.60563	0.116205
630.67696	0.112084
628.74828	0.105851
626.81961	0.098187
624.89093	0.090487
622.96226	0.084520
621.03358	0.080962
619.10490	0.078953
617.17623	0.077522
615.24755	0.076008
613.31888	0.074156
611.39020	0.072445
609.46153	0.071574
607.53285	0.071648
605.60417	0.072267
603.67550	0.073267
601.74682	0.074693
599.81815	0.076334
597.88947	0.077776
595.96080	0.078765
594.03212	0.079421
592.10344	0.079957
590.17477	0.080299
588.24609	0.080327
586.31742	0.080166
584.38874	0.079887
582.46007	0.079415
580.53139	0.078741
578.60271	0.077931
576.67404	0.077057
574.74536	0.076182
572.81669	0.075241
570.88801	0.074097
568.95934	0.072903
567.03066	0.071986
565.10198	0.071363
563.17331	0.070817
561.24463	0.070235
559.31596	0.069672
557.38728	0.069176
555.45861	0.068741
553.52993	0.068389
551.60125	0.068056
549.67258	0.067646
547.74390	0.067237
545.81523	0.066931
543.88655	0.066724
541.95788	0.066604
540.02920	0.066452
538.10052	0.066089
536.17185	0.065561
534.24317	0.065033
532.31450	0.064512
530.38582	0.063935
528.45715	0.063313
526.52847	0.062662
524.59979	0.062003
522.67112	0.061324
520.74244	0.060524
518.81377	0.059496
516.88509	0.058320
514.95642	0.057341
513.02774	0.056751
511.09906	0.056415
509.17039	0.056172
507.24171	0.055816
505.31304	0.055246
503.38436	0.054603
501.45569	0.053935
499.52701	0.053115
497.59833	0.052176
495.66966	0.051316
493.74098	0.050578
491.81231	0.049816
489.88363	0.048864
487.95496	0.047743
486.02628	0.046622
484.09760	0.045593
482.16893	0.044681
480.24025	0.043869
478.31158	0.043045
476.38290	0.042021
474.45423	0.040817
472.52555	0.039814
470.59687	0.039223
468.66820	0.038760
466.73952	0.038175
464.81085	0.037627
462.88217	0.037303
460.95350	0.037121
459.02482	0.036968
457.09614	0.036879
455.16747	0.036882
453.23879	0.036914
451.31012	0.036976
449.38144	0.037041
447.45277	0.036965
445.52409	0.036640
443.59541	0.036088
441.66674	0.035475
439.73806	0.034925
437.80939	0.034380
435.88071	0.033729
433.95204	0.032993
432.02336	0.032291
430.09468	0.031541
428.16601	0.030485
426.23733	0.029138
424.30866	0.027894
422.37998	0.026944
420.45131	0.026072
418.52263	0.025106
416.59395	0.024005
414.66528	0.022838
412.73660	0.021748
410.80793	0.020706
408.87925	0.019597
406.95058	0.018407
405.02190	0.017259
403.09322	0.016274
401.16455	0.015355
399.23587	0.014370
397.30720	0.013503
395.37852	0.012919
393.44985	0.012321
391.52117	0.011432
389.59249	0.010451
387.66382	0.009617
385.73514	0.008944
383.80647	0.008370
381.87779	0.007784
379.94912	0.007083
378.02044	0.006341
376.09176	0.005833
374.16309	0.005633
372.23441	0.005390
370.30574	0.004866
368.37706	0.004220
